,times,frequency,temperature,mass_flow,volume_flow,mouth_pressure,offset,theta,radius,alpha,z,x,alpha_ref,z_ref,x_ref,flow_ref,offset_ref,theta_ref,radius_ref
0,0.0,216.03335780870768,27.37812614440918,0.7734375,1.19140625,-7.32185173034668,-0.03,44.53,5.51,-0.47,77.32,86.5,-0.47,77.32,86.5,-0.47,-0.03,44.53,5.51
1,0.06013345718383789,186.71556060166282,27.37812614440918,3.16015625,4.873046875,668.53857421875,-0.03,44.53,5.51,-0.47,77.32,86.49,-0.47,77.32,86.48,-0.47,-0.03,44.53,5.52
2,0.11641287803649902,186.71556060166282,27.37812614440918,15.15625,23.107421875,494.28582763671875,-0.03,44.53,5.53,-0.47,77.32,86.47,-0.47,77.32,86.46,-0.47,-0.03,44.53,5.54
3,0.17007017135620117,783.3495282795922,27.37812614440918,18.169921875,27.71484375,563.1744995117188,-0.03,44.53,5.55,-0.47,77.32,86.46,-0.47,77.32,86.45,-0.47,-0.03,44.53,5.55
4,0.22348237037658691,783.3495282795922,27.37812614440918,19.720703125,30.080078125,557.7742919921875,-0.03,44.53,5.56,-0.47,77.32,86.44,-0.47,77.32,86.43,-0.47,-0.03,44.53,5.57
5,0.27742576599121094,789.2982507247822,27.37812614440918,20.48828125,31.251953125,553.9796142578125,-0.03,44.53,5.57,-0.47,77.32,86.43,-0.47,77.32,86.42,-0.47,-0.03,44.53,5.59
6,0.3350646495819092,788.840118723666,27.375,20.791015625,31.7109375,556.740478515625,-0.03,44.53,5.59,-0.47,77.32,86.41,-0.47,77.32,86.41,-0.47,-0.03,44.53,5.59
7,0.3927795886993408,788.840118723666,27.371875762939453,20.9296875,31.921875,557.0810546875,-0.03,44.53,5.61,-0.47,77.32,86.39,-0.47,77.32,86.38,-0.47,-0.03,44.53,5.62
8,0.44732213020324707,783.8413150074566,27.368749618530273,20.984375,32.00390625,553.407958984375,-0.03,44.53,5.62,-0.47,77.32,86.38,-0.47,77.32,86.37,-0.47,-0.03,44.53,5.63
9,0.50180983543396,783.8413150074566,27.368749618530273,21.005859375,32.033203125,561.7028198242188,-0.03,44.53,5.64,-0.47,77.32,86.36,-0.47,77.32,86.36,-0.47,-0.03,44.53,5.64
10,0.5548429489135742,787.0101955544787,27.36250114440918,21.017578125,32.05078125,559.7567749023438,-0.03,44.53,5.65,-0.47,77.32,86.35,-0.47,77.32,86.34,-0.47,-0.03,44.53,5.67
11,0.609217643737793,787.0101955544787,27.359375,21.017578125,32.0546875,545.2468872070312,-0.03,44.53,5.67,-0.47,77.32,86.33,-0.47,77.32,86.32,-0.47,-0.03,44.53,5.68
12,0.6659839153289795,787.0478526545218,27.356250762939453,21.017578125,32.052734375,555.341796875,-0.03,44.53,5.68,-0.47,77.32,86.32,-0.47,77.32,86.3,-0.47,-0.03,44.53,5.7
13,0.7236948013305664,787.1058184006979,27.350000381469727,21.013671875,32.046875,555.013427734375,-0.03,44.53,5.7,-0.47,77.32,86.3,-0.47,77.32,86.29,-0.47,-0.03,44.53,5.71
14,0.7757751941680908,787.1058184006979,27.34687614440918,21.009765625,32.0390625,552.8606567382812,-0.03,44.53,5.72,-0.47,77.32,86.28,-0.47,77.32,86.28,-0.47,-0.03,44.53,5.72
15,0.829681396484375,787.0103545681678,27.340625762939453,21.00390625,32.03125,550.7078857421875,-0.03,44.53,5.73,-0.47,77.32,86.27,-0.47,77.32,86.26,-0.47,-0.03,44.53,5.75
16,0.8838036060333252,787.0103545681678,27.334375381469727,21.00390625,32.029296875,549.674072265625,-0.03,44.53,5.75,-0.47,77.32,86.26,-0.47,77.32,86.25,-0.47,-0.03,44.53,5.75
17,0.9386401176452637,786.7884719101455,27.33125114440918,21.00390625,32.029296875,549.540283203125,-0.03,44.53,5.76,-0.47,77.32,86.24,-0.47,77.32,86.23,-0.47,-0.03,44.53,5.77
18,0.9973659515380859,786.7884719101455,27.325000762939453,21.005859375,32.03125,552.9214477539062,-0.03,44.53,5.78,-0.47,77.32,86.22,-0.47,77.32,86.22,-0.47,-0.03,44.53,5.79
19,1.056802749633789,790.1243183902253,27.31562614440918,21.0078125,32.037109375,548.5672607421875,-0.03,44.53,5.8,-0.47,77.32,86.2,-0.47,77.32,86.2,-0.47,-0.03,44.53,5.8
20,1.1164095401763916,790.1243183902253,27.3125,21.01171875,32.04296875,546.669921875,-0.03,44.53,5.81,-0.47,77.32,86.19,-0.47,77.32,86.18,-0.47,-0.03,44.53,5.83
21,1.1723501682281494,786.5563222871177,27.303125381469727,21.013671875,32.04296875,545.4049682617188,-0.03,44.53,5.83,-0.47,77.32,86.17,-0.47,77.32,86.17,-0.47,-0.03,44.53,5.83
22,1.2272632122039795,786.5563222871177,27.30000114440918,21.01171875,32.0390625,546.0982666015625,-0.03,44.53,5.84,-0.47,77.32,86.16,-0.47,77.32,86.15,-0.47,-0.03,44.53,5.85
23,1.2864916324615479,786.7494654582748,27.290624618530273,21.0078125,32.03125,551.2916870117188,-0.03,44.53,5.87,-0.47,77.32,86.14,-0.47,77.33,86.13,-0.47,-0.03,44.53,5.87
24,1.3406798839569092,786.7494654582748,27.28437614440918,21.00390625,32.0234375,558.1026611328125,-0.03,44.53,5.88,-0.47,77.33,86.12,-0.47,77.33,86.12,-0.47,-0.03,44.53,5.88
25,1.393827199935913,790.415316266986,27.274999618530273,21.0,32.017578125,550.9754638671875,-0.03,44.53,5.89,-0.47,77.33,86.11,-0.47,77.33,86.1,-0.47,-0.03,44.53,5.91
26,1.446486473083496,786.6799943586083,27.271875381469727,20.998046875,32.015625,549.7592163085938,-0.03,44.53,5.91,-0.47,77.33,86.09,-0.47,77.33,86.09,-0.47,-0.03,44.53,5.91
27,1.5000145435333252,786.6799943586083,27.265625,20.998046875,32.013671875,566.482666015625,-0.03,44.53,5.93,-0.47,77.33,86.07,-0.47,77.33,86.07,-0.47,-0.03,44.53,5.93
28,1.5529708862304688,789.7850934651192,27.256250381469727,21.00390625,32.021484375,550.343017578125,-0.03,44.53,5.94,-0.47,77.33,86.06,-0.47,77.33,86.06,-0.47,-0.03,44.53,5.95
29,1.607269525527954,789.7850934651192,27.25,21.00390625,32.0234375,548.7618408203125,-0.03,44.53,5.95,-0.47,77.33,86.05,-0.47,77.33,86.04,-0.47,-0.03,44.53,5.96
30,1.6617059707641602,787.1168631327989,27.240625381469727,21.005859375,32.0234375,551.8511352539062,-0.03,44.53,5.97,-0.47,77.33,86.03,-0.47,77.33,86.02,-0.47,-0.03,44.53,5.98
31,1.7187309265136719,787.1168631327989,27.23750114440918,21.005859375,32.0234375,554.0525512695312,-0.03,44.53,5.99,-0.47,77.33,86.02,-0.47,77.33,86.01,-0.47,-0.03,44.53,5.99
32,1.7712931632995605,786.2850454177369,27.228124618530273,21.005859375,32.021484375,555.5972290039062,-0.03,44.53,6.0,-0.47,77.33,86.0,-0.47,77.33,85.99,-0.47,-0.03,44.53,6.01
33,1.826885461807251,786.2850454177369,27.22187614440918,21.005859375,32.021484375,550.7686767578125,-0.03,44.53,6.02,-0.47,77.33,85.98,-0.47,77.33,85.98,-0.47,-0.03,44.53,6.03
34,1.8842077255249023,790.804316557934,27.215625762939453,21.00390625,32.017578125,545.7698974609375,-0.03,44.53,6.03,-0.47,77.33,85.97,-0.47,77.33,85.96,-0.47,-0.03,44.53,6.04
35,1.9391493797302246,790.804316557934,27.209375381469727,21.0,32.009765625,558.1270141601562,-0.03,44.53,6.05,-0.47,77.33,85.95,-0.47,77.33,85.94,-0.47,-0.03,44.53,6.06
36,1.9946658611297607,786.2201489597321,27.200000762939453,20.99609375,32.00390625,559.3797607421875,-0.03,44.53,6.07,-0.47,77.33,85.94,-0.47,77.33,85.93,-0.47,-0.03,44.53,6.07
37,2.0473644733428955,786.483084724134,27.193750381469727,20.99609375,32.00390625,557.9324340820312,-0.03,44.53,6.08,-0.47,77.33,85.92,-0.47,77.33,85.91,-0.47,-0.03,44.53,6.09
38,2.10479474067688,786.483084724134,27.1875,21.0,32.009765625,551.401123046875,-0.03,44.53,6.1,-0.47,77.33,85.9,-0.47,77.33,85.9,-0.47,-0.03,44.53,6.11
39,2.1607680320739746,786.6216602659439,27.181249618530273,21.005859375,32.015625,552.5565795898438,-0.03,44.53,6.11,-0.47,77.33,85.89,-0.47,77.33,85.88,-0.47,-0.03,44.53,6.12
40,2.2131288051605225,786.6216602659439,27.171875,21.005859375,32.015625,557.87158203125,-0.03,44.53,6.13,-0.47,77.33,85.87,-0.47,77.33,85.86,-0.47,-0.03,44.53,6.14
41,2.271216630935669,786.6223043451514,27.165624618530273,21.0078125,32.01953125,568.68408203125,-0.03,44.53,6.15,-0.47,77.33,85.86,-0.47,77.33,85.85,-0.47,-0.03,44.53,6.15
42,2.326978921890259,786.6223043451514,27.15937614440918,21.005859375,32.013671875,553.0430908203125,-0.03,44.53,6.15,-0.47,77.33,85.85,-0.47,77.33,85.83,-0.47,-0.03,44.53,6.17
43,2.3807897567749023,789.7216490483754,27.153125762939453,21.00390625,32.01171875,560.8514404296875,-0.03,44.53,6.18,-0.47,77.33,85.82,-0.47,77.33,85.82,-0.47,-0.03,44.53,6.18
44,2.433826208114624,786.3459563886738,27.14375114440918,21.001953125,32.005859375,555.5120849609375,-0.03,44.53,6.19,-0.47,77.33,85.81,-0.47,77.33,85.8,-0.47,-0.03,44.53,6.2
45,2.4885644912719727,786.3459563886738,27.137500762939453,20.998046875,32.0,558.6256713867188,-0.03,44.53,6.21,-0.47,77.33,85.79,-0.47,77.33,85.78,-0.47,-0.03,44.53,6.22
46,2.5446434020996094,786.0455208222462,27.134374618530273,20.99609375,31.998046875,560.754150390625,-0.03,44.53,6.23,-0.47,77.33,85.78,-0.47,77.33,85.77,-0.47,-0.03,44.53,6.23
47,2.5972049236297607,786.0455208222462,27.125,20.998046875,31.998046875,559.6351928710938,-0.03,44.53,6.24,-0.47,77.33,85.76,-0.47,77.33,85.76,-0.47,-0.03,44.53,6.24
48,2.655341863632202,785.361400497224,27.118749618530273,21.001953125,32.001953125,564.1839599609375,-0.03,44.53,6.25,-0.47,77.33,85.75,-0.47,77.33,85.74,-0.47,-0.03,44.53,6.26
49,2.7080256938934326,785.361400497224,27.11250114440918,21.00390625,32.00390625,557.3121337890625,-0.03,44.53,6.27,-0.47,77.33,85.74,-0.47,77.33,85.72,-0.47,-0.03,44.53,6.28
50,2.7608754634857178,786.4748360882435,27.106250762939453,21.005859375,32.0078125,559.550048828125,-0.03,44.53,6.29,-0.47,77.33,85.71,-0.47,77.33,85.71,-0.47,-0.03,44.53,6.29
51,2.8139255046844482,786.4748360882435,27.100000381469727,21.0078125,32.0078125,553.5660400390625,-0.03,44.53,6.3,-0.47,77.33,85.7,-0.47,77.33,85.7,-0.47,-0.03,44.53,6.31
52,2.8685762882232666,787.4250073430634,27.090625762939453,21.0078125,32.005859375,560.0487060546875,-0.03,44.53,6.31,-0.47,77.33,85.69,-0.47,77.33,85.68,-0.47,-0.03,44.53,6.32
53,2.9211277961730957,786.084595104458,27.084375381469727,21.00390625,32.001953125,552.2282104492188,-0.03,44.53,6.33,-0.47,77.33,85.67,-0.47,77.33,85.66,-0.47,-0.03,44.53,6.34
54,2.976285457611084,786.084595104458,27.078125,21.001953125,31.99609375,564.1353149414062,-0.03,44.53,6.35,-0.47,77.33,85.66,-0.47,77.33,85.65,-0.47,-0.03,44.53,6.35
55,3.030128002166748,785.984402304824,27.071874618530273,21.0,31.9921875,558.5040283203125,-0.03,44.53,6.36,-0.47,77.33,85.64,-0.47,77.33,85.63,-0.47,-0.03,44.53,6.37
56,3.0836591720581055,785.984402304824,27.06562614440918,20.998046875,31.990234375,555.9863891601562,-0.03,44.53,6.38,-0.47,77.33,85.62,-0.47,77.33,85.62,-0.47,-0.03,44.53,6.39
57,3.1370203495025635,783.3820274532403,27.059375762939453,20.99609375,31.98828125,548.9564819335938,-0.03,44.53,6.39,-0.47,77.33,85.61,-0.47,77.33,85.6,-0.47,-0.03,44.53,6.4
58,3.1940317153930664,783.3820274532403,27.056249618530273,20.998046875,31.9921875,553.3228149414062,-0.03,44.53,6.41,-0.47,77.33,85.59,-0.47,77.33,85.58,-0.47,-0.03,44.53,6.42
59,3.246493101119995,785.8859237476049,27.046875,21.001953125,31.99609375,552.7998046875,-0.03,44.53,6.43,-0.47,77.33,85.58,-0.47,77.33,85.57,-0.47,-0.03,44.53,6.43
60,3.2998123168945312,785.8859237476049,27.043750762939453,21.00390625,31.998046875,552.8849487304688,-0.03,44.53,6.43,-0.47,77.33,85.57,-0.47,77.33,85.55,-0.47,-0.03,44.53,6.45
61,3.3557958602905273,786.1007386230257,27.037500381469727,21.005859375,32.001953125,552.9214477539062,-0.03,44.53,6.45,-0.47,77.33,85.55,-0.47,77.33,85.54,-0.47,-0.03,44.53,6.47
62,3.408663749694824,785.9571210375312,27.03125,21.0078125,32.001953125,555.7188110351562,-0.03,44.53,6.47,-0.47,77.33,85.53,-0.47,77.33,85.53,-0.47,-0.03,44.53,6.47
63,3.4634461402893066,785.9571210375312,27.024999618530273,21.00390625,31.998046875,553.140380859375,-0.03,44.53,6.49,-0.47,77.33,85.51,-0.47,77.33,85.51,-0.47,-0.03,44.53,6.49
64,3.516676902770996,785.5946340844785,27.01875114440918,21.001953125,31.99609375,558.27294921875,-0.03,44.53,6.5,-0.47,77.33,85.5,-0.47,77.33,85.5,-0.47,-0.03,44.53,6.51
65,3.5730245113372803,785.5946340844785,27.015625,20.998046875,31.986328125,552.2890014648438,-0.03,44.53,6.52,-0.47,77.33,85.48,-0.47,77.33,85.48,-0.47,-0.03,44.53,6.52
66,3.628946542739868,784.3148107968908,27.009374618530273,20.99609375,31.984375,558.4918823242188,-0.03,44.53,6.53,-0.47,77.33,85.47,-0.47,77.33,85.46,-0.47,-0.03,44.53,6.55
67,3.681253671646118,785.978597719446,27.00312614440918,20.99609375,31.984375,546.6942138671875,-0.03,44.53,6.55,-0.47,77.33,85.45,-0.47,77.33,85.45,-0.47,-0.03,44.53,6.55
68,3.7360999584198,785.978597719446,26.996875762939453,20.99609375,31.982421875,553.407958984375,-0.03,44.53,6.56,-0.47,77.33,85.44,-0.47,77.33,85.43,-0.47,-0.03,44.53,6.57
69,3.7934131622314453,790.1434692378126,26.993749618530273,21.0,31.986328125,557.60400390625,-0.03,44.53,6.58,-0.47,77.33,85.42,-0.47,77.33,85.42,-0.47,-0.03,44.53,6.59
70,3.846168279647827,790.1434692378126,26.984375,21.00390625,31.994140625,556.1810302734375,-0.03,44.53,6.59,-0.47,77.33,85.41,-0.47,77.33,85.4,-0.47,-0.03,44.53,6.6
71,3.9013166427612305,786.7052216985472,26.981250762939453,21.005859375,31.99609375,556.4364013671875,-0.03,44.53,6.61,-0.47,77.33,85.39,-0.47,77.33,85.38,-0.47,-0.03,44.53,6.62
72,3.9544005393981934,786.7052216985472,26.978124618530273,21.005859375,31.99609375,549.5645751953125,-0.03,44.53,6.63,-0.47,77.33,85.38,-0.47,77.33,85.37,-0.47,-0.03,44.53,6.63
73,4.012523889541626,785.8161834678245,26.96875,21.005859375,31.994140625,554.599853515625,-0.03,44.53,6.64,-0.47,77.33,85.36,-0.47,77.33,85.35,-0.47,-0.03,44.53,6.65
74,4.065311431884766,785.7014820433209,26.965625762939453,21.00390625,31.990234375,547.3510131835938,-0.03,44.53,6.66,-0.47,77.33,85.34,-0.47,77.33,85.34,-0.47,-0.03,44.53,6.67
75,4.119219541549683,785.7014820433209,26.959375381469727,21.0,31.984375,551.47412109375,-0.03,44.53,6.67,-0.47,77.33,85.33,-0.47,77.33,85.32,-0.47,-0.03,44.53,6.68
76,4.174440383911133,785.6517257959787,26.95625114440918,20.998046875,31.98046875,555.9620971679688,-0.03,44.53,6.69,-0.47,77.33,85.31,-0.47,77.33,85.3,-0.47,-0.03,44.53,6.7
77,4.228703737258911,785.6517257959787,26.950000762939453,20.99609375,31.9765625,551.6930541992188,-0.03,44.53,6.71,-0.47,77.33,85.3,-0.47,77.33,85.29,-0.47,-0.03,44.53,6.71
78,4.285413980484009,785.5048273950462,26.943750381469727,20.998046875,31.978515625,550.9511108398438,-0.03,44.53,6.72,-0.47,77.33,85.28,-0.47,77.33,85.27,-0.47,-0.03,44.53,6.73
79,4.341331243515015,785.5048273950462,26.94062614440918,21.0,31.982421875,556.2783203125,-0.03,44.53,6.74,-0.47,77.33,85.26,-0.47,77.33,85.26,-0.47,-0.03,44.53,6.75
80,4.395672082901001,785.7745413471848,26.9375,21.005859375,31.98828125,545.98876953125,-0.03,44.53,6.75,-0.47,77.33,85.25,-0.47,77.33,85.24,-0.47,-0.03,44.53,6.76
81,4.4503092765808105,790.8311854187116,26.931249618530273,21.005859375,31.990234375,552.7876586914062,-0.03,44.53,6.77,-0.47,77.33,85.23,-0.47,77.33,85.22,-0.47,-0.03,44.53,6.78
82,4.509894371032715,790.8311854187116,26.92500114440918,21.005859375,31.9921875,550.4767456054688,-0.03,44.53,6.78,-0.47,77.33,85.22,-0.47,77.33,85.21,-0.47,-0.03,44.53,6.79
83,4.562678575515747,785.9656390741768,26.921875,21.0078125,31.990234375,569.024658203125,-0.03,44.53,6.8,-0.47,77.34,85.2,-0.47,77.34,85.19,-0.47,-0.03,44.53,6.81
84,4.617221832275391,785.9656390741768,26.915624618530273,21.001953125,31.982421875,552.9214477539062,-0.03,44.53,6.82,-0.47,77.34,85.18,-0.47,77.34,85.18,-0.47,-0.03,44.53,6.82
85,4.6736040115356445,791.5081891456795,26.912500381469727,21.001953125,31.982421875,554.271484375,-0.03,44.53,6.83,-0.47,77.34,85.17,-0.47,77.34,85.16,-0.47,-0.03,44.53,6.84
86,4.733057260513306,791.5081891456795,26.90937614440918,20.99609375,31.974609375,556.071533203125,-0.03,44.53,6.85,-0.47,77.34,85.15,-0.47,77.34,85.14,-0.47,-0.03,44.53,6.86
87,4.789402484893799,784.079356309697,26.90625,20.998046875,31.974609375,545.5631103515625,-0.03,44.53,6.87,-0.47,77.34,85.14,-0.47,77.34,85.13,-0.47,-0.03,44.53,6.87
88,4.845781087875366,785.5143686489005,26.899999618530273,20.99609375,31.97265625,556.4850463867188,-0.03,44.53,6.88,-0.47,77.34,85.12,-0.47,77.34,85.11,-0.47,-0.03,44.53,6.89
89,4.899408578872681,785.5143686489005,26.896875381469727,20.998046875,31.974609375,552.0214233398438,-0.03,44.53,6.89,-0.47,77.34,85.11,-0.47,77.34,85.1,-0.47,-0.03,44.53,6.9
90,4.951773643493652,794.7910466576076,26.890625,21.001953125,31.98046875,557.7742919921875,-0.03,44.53,6.91,-0.47,77.34,85.1,-0.47,77.34,85.08,-0.47,-0.03,44.53,6.92
91,5.007374286651611,794.7910466576076,26.887500762939453,21.00390625,31.984375,553.2255249023438,-0.03,44.53,6.93,-0.47,77.34,85.07,-0.47,77.34,85.06,-0.47,-0.03,44.53,6.94
92,5.0603461265563965,787.4012606448679,26.884374618530273,21.005859375,31.986328125,548.1537475585938,-0.03,44.53,6.95,-0.47,77.34,85.06,-0.47,77.34,85.05,-0.47,-0.03,44.53,6.95
93,5.117990732192993,787.4012606448679,26.881250381469727,21.005859375,31.984375,549.4551391601562,-0.03,44.53,6.95,-0.47,77.34,85.05,-0.47,77.34,85.04,-0.47,-0.03,44.53,6.96
94,5.173130512237549,784.813226348427,26.87812614440918,21.00390625,31.982421875,546.4752807617188,-0.03,44.53,6.97,-0.47,77.34,85.03,-0.47,77.34,85.02,-0.47,-0.03,44.53,6.98
95,5.231036186218262,784.813226348427,26.871875762939453,21.0,31.974609375,558.7594604492188,-0.03,44.53,6.99,-0.47,77.34,85.01,-0.47,77.34,85.01,-0.47,-0.03,44.53,6.99
96,5.285691976547241,781.9830074630024,26.868749618530273,20.998046875,31.97265625,554.9769287109375,-0.03,44.53,7.01,-0.47,77.34,84.99,-0.47,77.34,84.99,-0.47,-0.03,44.53,7.01
97,5.339455604553223,785.0907617477017,26.865625381469727,20.99609375,31.96875,550.4159545898438,-0.03,44.53,7.03,-0.47,77.34,84.98,-0.47,77.34,84.98,-0.47,-0.03,44.53,7.03
98,5.392230272293091,785.0907617477017,26.859375,20.99609375,31.966796875,558.8932495117188,-0.03,44.53,7.04,-0.47,77.34,84.96,-0.47,77.34,84.96,-0.47,-0.03,44.53,7.04
99,5.444539546966553,784.6019438422015,26.856250762939453,20.994140625,31.96484375,551.8389892578125,-0.03,44.53,7.05,-0.47,77.34,84.95,-0.47,77.34,84.94,-0.47,-0.03,44.53,7.06
100,5.496846675872803,784.6019438422015,26.853124618530273,21.0,31.97265625,553.9187622070312,-0.03,44.53,7.07,-0.47,77.34,84.94,-0.47,77.34,84.93,-0.47,-0.03,44.53,7.07
101,5.551087856292725,784.656723357514,26.850000381469727,21.001953125,31.9765625,558.7838134765625,-0.03,44.53,7.08,-0.47,77.34,84.92,-0.47,77.34,84.91,-0.47,-0.03,44.53,7.09
102,5.60654616355896,784.656723357514,26.84687614440918,21.00390625,31.9765625,547.3631591796875,-0.03,44.53,7.11,-0.47,77.34,84.9,-0.47,77.34,84.9,-0.47,-0.03,44.53,7.11
103,5.660525798797607,784.4314582939479,26.84375,21.005859375,31.98046875,549.8321533203125,-0.03,44.53,7.11,-0.47,77.34,84.89,-0.47,77.34,84.88,-0.47,-0.03,44.53,7.12
104,5.712933778762817,793.9222106244995,26.837499618530273,21.00390625,31.978515625,549.661865234375,-0.03,44.53,7.13,-0.47,77.34,84.87,-0.47,77.34,84.86,-0.47,-0.03,44.53,7.14
105,5.766047239303589,793.9222106244995,26.837499618530273,21.0,31.97265625,545.5509643554688,-0.03,44.53,7.15,-0.47,77.34,84.86,-0.47,77.34,84.85,-0.47,-0.03,44.53,7.15
106,5.819839715957642,784.0560038533642,26.83125114440918,20.998046875,31.96875,544.9306640625,-0.03,44.53,7.16,-0.47,77.34,84.84,-0.47,77.34,84.83,-0.47,-0.03,44.53,7.17
107,5.875135898590088,784.0560038533642,26.828125,20.99609375,31.96484375,545.1860961914062,-0.03,44.53,7.18,-0.47,77.34,84.82,-0.47,77.34,84.82,-0.47,-0.03,44.53,7.19
108,5.929642915725708,784.7461399106109,26.825000762939453,20.99609375,31.962890625,547.5213012695312,-0.03,44.53,7.19,-0.47,77.34,84.81,-0.47,77.34,84.8,-0.47,-0.03,44.53,7.2
109,5.982567310333252,784.7461399106109,26.825000762939453,20.99609375,31.96484375,548.603759765625,-0.03,44.53,7.21,-0.47,77.34,84.79,-0.47,77.34,84.79,-0.47,-0.03,44.53,7.21
110,6.0366926193237305,783.0068227733159,26.821874618530273,21.0,31.96875,547.3875122070312,-0.03,44.53,7.22,-0.47,77.34,84.78,-0.47,77.34,84.78,-0.47,-0.03,44.53,7.23
111,6.090550184249878,783.0068227733159,26.81562614440918,21.001953125,31.97265625,542.1575927734375,-0.03,44.53,7.24,-0.47,77.34,84.76,-0.47,77.34,84.76,-0.47,-0.03,44.53,7.24
112,6.145880460739136,783.9215528827835,26.8125,21.00390625,31.974609375,547.7037353515625,-0.03,44.53,7.25,-0.47,77.34,84.75,-0.47,77.34,84.74,-0.47,-0.03,44.53,7.26
113,6.201580047607422,791.7185019030379,26.809375762939453,21.005859375,31.9765625,558.6621704101562,-0.03,44.53,7.27,-0.47,77.34,84.74,-0.47,77.34,84.73,-0.47,-0.03,44.53,7.27
