,times,frequency,temperature,mass_flow,volume_flow,mouth_pressure,offset,theta,radius,alpha,z,x,alpha_ref,z_ref,x_ref,flow_ref,offset_ref,theta_ref,radius_ref
0,0.0,199.3665463805456,27.524999618530273,0.767578125,1.181640625,-8.063767433166504,-0.52,45.0,5.53,0.0,77.32,86.5,-0.47,77.32,86.5,-0.47,-0.03,44.53,5.51
1,0.05572080612182617,100.47566060500105,27.524999618530273,9.599609375,14.6484375,1395.238525390625,-0.52,45.0,5.54,0.0,77.32,86.49,-0.47,77.32,86.48,-0.47,-0.03,44.53,5.52
2,0.10926294326782227,100.47566060500105,27.528125762939453,19.568359375,29.609375,748.8843383789062,-0.52,45.0,5.55,0.0,77.32,86.47,-0.47,77.32,86.46,-0.47,-0.03,44.53,5.54
3,0.1659717559814453,401.85022918926387,27.528125762939453,23.775390625,36.0234375,896.29443359375,-0.52,45.0,5.57,0.0,77.32,86.46,-0.47,77.32,86.45,-0.47,-0.03,44.53,5.55
4,0.21997618675231934,401.85022918926387,27.524999618530273,25.5546875,38.71875,891.149658203125,-0.52,45.0,5.58,0.0,77.32,86.44,-0.47,77.32,86.43,-0.47,-0.03,44.53,5.57
5,0.2749660015106201,390.0552805147984,27.524999618530273,26.4296875,40.046875,891.1375122070312,-0.52,45.0,5.6,0.0,77.32,86.42,-0.47,77.32,86.42,-0.47,-0.03,44.53,5.59
6,0.3332631587982178,390.0552805147984,27.521875381469727,26.755859375,40.544921875,894.4092407226562,-0.52,45.0,5.62,0.0,77.32,86.41,-0.47,77.32,86.4,-0.47,-0.03,44.53,5.6
7,0.39095020294189453,1171.3828284455433,27.51875114440918,26.904296875,40.767578125,896.8173828125,-0.52,45.0,5.63,0.0,77.32,86.39,-0.47,77.32,86.38,-0.47,-0.03,44.53,5.62
8,0.446491003036499,1171.3828284455433,27.515625,26.97265625,40.869140625,892.94970703125,-0.52,45.0,5.65,0.0,77.32,86.38,-0.47,77.32,86.37,-0.47,-0.03,44.53,5.63
9,0.5050926208496094,1182.7367792442476,27.509374618530273,26.998046875,40.90625,886.3819580078125,-0.52,45.0,5.66,0.0,77.32,86.36,-0.47,77.32,86.35,-0.47,-0.03,44.53,5.65
10,0.5655536651611328,1182.7367792442476,27.506250381469727,27.01171875,40.927734375,890.1158447265625,-0.52,45.0,5.68,0.0,77.32,86.34,-0.47,77.32,86.34,-0.47,-0.03,44.53,5.67
11,0.6230795383453369,1176.0650616729522,27.50312614440918,27.021484375,40.939453125,887.3671264648438,-0.52,45.0,5.7,0.0,77.32,86.33,-0.47,77.32,86.32,-0.47,-0.03,44.53,5.68
12,0.6823663711547852,1175.3655593778763,27.493749618530273,27.01953125,40.9375,886.01708984375,-0.52,45.0,5.71,0.0,77.32,86.31,-0.47,77.32,86.3,-0.47,-0.03,44.53,5.7
13,0.7375898361206055,1175.3655593778763,27.490625381469727,27.017578125,40.93359375,889.0698852539062,-0.52,45.0,5.73,0.0,77.32,86.3,-0.47,77.32,86.28,-0.47,-0.03,44.53,5.72
14,0.7929656505584717,1167.6276269382531,27.481250762939453,27.01171875,40.927734375,887.549560546875,-0.52,45.0,5.74,0.0,77.32,86.28,-0.47,77.32,86.27,-0.47,-0.03,44.53,5.73
15,0.8491678237915039,1167.6276269382531,27.475000381469727,27.009765625,40.921875,885.8589477539062,-0.52,45.0,5.77,0.0,77.32,86.26,-0.47,77.32,86.25,-0.47,-0.03,44.53,5.75
16,0.9037725925445557,1169.2985409392961,27.465625762939453,27.009765625,40.921875,885.0927124023438,-0.52,45.0,5.78,0.0,77.32,86.25,-0.47,77.32,86.24,-0.47,-0.03,44.53,5.76
17,0.9570822715759277,1168.8247355604053,27.459375381469727,27.013671875,40.92578125,885.9927368164062,-0.52,45.0,5.79,0.0,77.32,86.23,-0.47,77.32,86.22,-0.47,-0.03,44.53,5.78
18,1.0116631984710693,1168.8247355604053,27.453125,27.013671875,40.923828125,877.7222290039062,-0.52,45.0,5.81,0.0,77.32,86.22,-0.47,77.32,86.21,-0.47,-0.03,44.53,5.79
19,1.0667402744293213,1168.516171644263,27.44062614440918,27.015625,40.92578125,883.0615844726562,-0.52,45.0,5.82,0.0,77.32,86.2,-0.47,77.32,86.19,-0.47,-0.03,44.53,5.81
20,1.120349407196045,1168.516171644263,27.4375,27.015625,40.92578125,883.8156127929688,-0.52,45.0,5.84,0.0,77.32,86.18,-0.47,77.32,86.18,-0.47,-0.03,44.53,5.83
21,1.1732161045074463,1170.3877785831412,27.42500114440918,27.015625,40.921875,886.8197631835938,-0.52,45.0,5.86,0.0,77.32,86.17,-0.47,77.32,86.16,-0.47,-0.03,44.53,5.84
22,1.2261052131652832,1170.3381322468647,27.418750762939453,27.009765625,40.9140625,900.3931884765625,-0.52,45.0,5.87,0.0,77.32,86.15,-0.47,77.32,86.14,-0.47,-0.03,44.53,5.86
23,1.2802619934082031,1170.3381322468647,27.40937614440918,27.0078125,40.908203125,891.1375122070312,-0.52,45.0,5.89,0.0,77.32,86.14,-0.47,77.33,86.13,-0.47,-0.03,44.53,5.87
24,1.3407750129699707,1171.071567755781,27.399999618530273,27.0,40.89453125,887.148193359375,-0.53,45.0,5.91,0.0,77.33,86.11,-0.47,77.33,86.11,-0.47,-0.03,44.53,5.89
25,1.3976998329162598,1171.071567755781,27.390625,27.0,40.89453125,883.1831665039062,-0.53,45.0,5.92,0.0,77.33,86.1,-0.47,77.33,86.1,-0.47,-0.03,44.53,5.91
26,1.4503440856933594,1168.7246786968215,27.381250381469727,27.001953125,40.896484375,883.6453857421875,-0.53,45.0,5.94,0.0,77.33,86.09,-0.47,77.33,86.08,-0.47,-0.03,44.53,5.92
27,1.5047943592071533,1168.7246786968215,27.371875762939453,27.001953125,40.896484375,890.80908203125,-0.53,45.0,5.95,0.0,77.33,86.07,-0.47,77.33,86.07,-0.47,-0.03,44.53,5.93
28,1.559051275253296,1167.5860107332514,27.365625381469727,27.001953125,40.896484375,885.542724609375,-0.53,45.0,5.97,0.0,77.33,86.06,-0.47,77.33,86.05,-0.47,-0.03,44.53,5.95
29,1.6154043674468994,391.01829680332463,27.356250762939453,27.0078125,40.900390625,901.5729370117188,-0.53,45.0,5.98,0.0,77.33,86.04,-0.47,77.33,86.03,-0.47,-0.03,44.53,5.97
30,1.6704683303833008,391.01829680332463,27.34687614440918,27.0078125,40.900390625,889.3131103515625,-0.53,45.0,6.0,0.0,77.33,86.02,-0.47,77.33,86.02,-0.47,-0.03,44.53,5.99
31,1.7240674495697021,390.37933667937756,27.340625762939453,27.009765625,40.8984375,901.427001953125,-0.53,45.0,6.02,0.0,77.33,86.01,-0.47,77.33,86.0,-0.47,-0.03,44.53,6.0
32,1.7770190238952637,390.37933667937756,27.33125114440918,27.005859375,40.89453125,904.9298095703125,-0.53,45.0,6.03,0.0,77.33,85.99,-0.47,77.33,85.98,-0.47,-0.03,44.53,6.02
33,1.8303430080413818,390.539269737591,27.318750381469727,27.0078125,40.896484375,894.3727416992188,-0.53,45.0,6.04,0.0,77.33,85.98,-0.47,77.33,85.98,-0.47,-0.03,44.53,6.03
34,1.8879954814910889,390.539269737591,27.3125,27.00390625,40.890625,881.6506958007812,-0.53,45.0,6.06,0.0,77.33,85.97,-0.47,77.33,85.95,-0.47,-0.03,44.53,6.05
35,1.9463191032409668,388.64678879052053,27.303125381469727,27.001953125,40.884765625,895.0781860351562,-0.53,45.0,6.07,0.0,77.33,85.95,-0.47,77.33,85.94,-0.47,-0.03,44.53,6.07
36,2.0033164024353027,388.64678879052053,27.290624618530273,27.0,40.876953125,891.1375122070312,-0.53,45.0,6.09,0.0,77.33,85.93,-0.47,77.33,85.92,-0.47,-0.03,44.53,6.08
37,2.056746244430542,391.4261573136875,27.28437614440918,27.00390625,40.880859375,888.546875,-0.53,45.0,6.1,0.0,77.33,85.92,-0.47,77.33,85.91,-0.47,-0.03,44.53,6.09
38,2.113874912261963,394.1492976194293,27.274999618530273,27.00390625,40.880859375,881.7723388671875,-0.53,45.0,6.12,0.0,77.33,85.9,-0.47,77.33,85.89,-0.47,-0.03,44.53,6.11
39,2.1709582805633545,394.1492976194293,27.262500762939453,27.0078125,40.884765625,888.0360717773438,-0.53,45.0,6.14,0.0,77.33,85.88,-0.47,77.33,85.87,-0.47,-0.03,44.53,6.13
40,2.2256503105163574,805.395043321584,27.256250381469727,27.009765625,40.884765625,895.5038452148438,-0.53,45.0,6.16,0.0,77.33,85.86,-0.47,77.33,85.86,-0.47,-0.03,44.53,6.15
41,2.281820774078369,805.395043321584,27.246875762939453,27.0078125,40.8828125,894.2389526367188,-0.53,45.0,6.17,0.0,77.33,85.85,-0.47,77.33,85.84,-0.47,-0.03,44.53,6.16
42,2.3347344398498535,806.4638543738388,27.240625381469727,27.005859375,40.876953125,893.0469970703125,-0.53,45.0,6.19,0.0,77.33,85.83,-0.47,77.33,85.82,-0.47,-0.03,44.53,6.18
43,2.391206741333008,806.4638543738388,27.228124618530273,27.001953125,40.869140625,901.828369140625,-0.53,45.0,6.21,0.0,77.33,85.82,-0.47,77.33,85.82,-0.47,-0.03,44.53,6.19
44,2.448514223098755,794.5802665530817,27.21875,26.998046875,40.865234375,915.3895874023438,-0.53,45.0,6.22,0.0,77.33,85.8,-0.47,77.33,85.8,-0.47,-0.03,44.53,6.2
45,2.5009191036224365,794.5802665530817,27.212499618530273,26.99609375,40.859375,891.1375122070312,-0.53,45.0,6.23,0.0,77.33,85.79,-0.47,77.33,85.78,-0.47,-0.03,44.53,6.23
46,2.5531721115112305,794.9421117110546,27.20625114440918,26.99609375,40.857421875,896.4403686523438,-0.53,45.0,6.25,0.0,77.33,85.77,-0.47,77.33,85.77,-0.47,-0.03,44.53,6.23
47,2.6078484058380127,794.9421117110546,27.193750381469727,26.994140625,40.853515625,890.9064331054688,-0.53,45.0,6.26,0.0,77.33,85.76,-0.47,77.33,85.75,-0.47,-0.03,44.53,6.25
48,2.66512393951416,791.2844047165446,27.1875,27.0,40.859375,895.686279296875,-0.53,45.0,6.28,0.0,77.33,85.74,-0.47,77.33,85.74,-0.47,-0.03,44.53,6.27
49,2.720212697982788,791.2844047165446,27.178125381469727,27.00390625,40.8671875,896.3430786132812,-0.53,45.0,6.29,0.0,77.33,85.73,-0.47,77.33,85.72,-0.47,-0.03,44.53,6.28
50,2.7735047340393066,795.9182738929721,27.171875,27.0078125,40.873046875,893.8618774414062,-0.53,45.0,6.31,0.0,77.33,85.71,-0.47,77.33,85.7,-0.47,-0.03,44.53,6.3
51,2.829512596130371,795.9182738929721,27.162500381469727,27.0078125,40.869140625,897.9728393554688,-0.53,45.0,6.33,0.0,77.33,85.7,-0.47,77.33,85.69,-0.47,-0.03,44.53,6.31
52,2.8824918270111084,805.9081084513929,27.153125762939453,27.005859375,40.8671875,898.1674194335938,-0.53,45.0,6.34,0.0,77.33,85.68,-0.47,77.33,85.67,-0.47,-0.03,44.53,6.33
53,2.9343392848968506,794.4116795335387,27.149999618530273,27.005859375,40.86328125,895.1754760742188,-0.53,45.0,6.36,0.0,77.33,85.66,-0.47,77.33,85.66,-0.47,-0.03,44.53,6.35
54,2.987656593322754,794.4116795335387,27.140625,27.0,40.85546875,901.8648681640625,-0.53,45.0,6.37,0.0,77.33,85.65,-0.47,77.33,85.64,-0.47,-0.03,44.53,6.36
55,3.043104887008667,794.7151838671672,27.131250381469727,26.99609375,40.8515625,887.0386962890625,-0.53,45.0,6.39,0.0,77.33,85.63,-0.47,77.33,85.62,-0.47,-0.03,44.53,6.38
56,3.0988097190856934,794.7151838671672,27.121875762939453,26.998046875,40.849609375,890.6510009765625,-0.53,45.0,6.41,0.0,77.33,85.62,-0.47,77.33,85.61,-0.47,-0.03,44.53,6.39
57,3.1535232067108154,794.2246054258997,27.118749618530273,26.998046875,40.84765625,897.8025512695312,-0.53,45.0,6.42,0.0,77.33,85.6,-0.47,77.33,85.6,-0.47,-0.03,44.53,6.4
58,3.2085936069488525,794.2246054258997,27.109375,27.001953125,40.85546875,896.890380859375,-0.53,45.0,6.44,0.0,77.33,85.58,-0.47,77.33,85.58,-0.47,-0.03,44.53,6.42
59,3.265636682510376,797.9741244275396,27.103124618530273,27.00390625,40.85546875,910.7556762695312,-0.53,45.0,6.45,0.0,77.33,85.57,-0.47,77.33,85.56,-0.47,-0.03,44.53,6.44
60,3.3217105865478516,797.9741244275396,27.09375,27.0078125,40.861328125,899.699951171875,-0.53,45.0,6.47,0.0,77.33,85.55,-0.47,77.33,85.54,-0.47,-0.03,44.53,6.46
61,3.375121593475342,795.0025173794114,27.087499618530273,27.009765625,40.86328125,890.8577270507812,-0.53,45.0,6.49,0.0,77.33,85.54,-0.47,77.33,85.53,-0.47,-0.03,44.53,6.47
62,3.4278063774108887,795.214235923799,27.08125114440918,27.0078125,40.857421875,895.284912109375,-0.53,45.0,6.5,0.0,77.33,85.52,-0.47,77.33,85.52,-0.47,-0.03,44.53,6.48
63,3.481837749481201,795.214235923799,27.075000762939453,27.005859375,40.853515625,897.6687622070312,-0.53,45.0,6.51,0.0,77.33,85.51,-0.47,77.33,85.5,-0.47,-0.03,44.53,6.5
64,3.53518009185791,794.7798582539259,27.068750381469727,26.998046875,40.841796875,889.4468994140625,-0.53,45.0,6.53,0.0,77.33,85.5,-0.47,77.33,85.48,-0.47,-0.03,44.53,6.52
65,3.5906782150268555,794.7798582539259,27.0625,26.998046875,40.84375,898.8607177734375,-0.53,45.0,6.54,0.0,77.33,85.48,-0.47,77.33,85.47,-0.47,-0.03,44.53,6.53
66,3.645662784576416,805.2384550379857,27.056249618530273,26.99609375,40.83984375,885.7981567382812,-0.53,45.0,6.56,0.0,77.33,85.46,-0.47,77.33,85.46,-0.47,-0.03,44.53,6.55
67,3.700577974319458,805.2384550379857,27.046875,27.0,40.841796875,904.5162963867188,-0.53,45.0,6.57,0.0,77.33,85.45,-0.47,77.33,85.44,-0.47,-0.03,44.53,6.56
68,3.753842353820801,795.4058106658682,27.043750762939453,26.998046875,40.83984375,895.5038452148438,-0.53,45.0,6.59,0.0,77.33,85.43,-0.47,77.33,85.42,-0.47,-0.03,44.53,6.58
69,3.8065404891967773,795.4058106658682,27.03437614440918,27.00390625,40.845703125,895.8444213867188,-0.53,45.0,6.61,0.0,77.33,85.42,-0.47,77.33,85.41,-0.47,-0.03,44.53,6.59
70,3.8604013919830322,794.636170768134,27.028125762939453,27.005859375,40.84765625,904.1879272460938,-0.53,45.0,6.62,0.0,77.33,85.4,-0.47,77.33,85.39,-0.47,-0.03,44.53,6.61
71,3.915520191192627,794.636170768134,27.021875381469727,27.005859375,40.845703125,885.08056640625,-0.53,45.0,6.65,0.0,77.33,85.38,-0.47,77.33,85.38,-0.47,-0.03,44.53,6.63
72,3.972510576248169,795.4490566772548,27.015625,27.00390625,40.84375,887.817138671875,-0.53,45.0,6.65,0.0,77.33,85.37,-0.47,77.33,85.36,-0.47,-0.03,44.53,6.64
73,4.025187969207764,795.4490566772548,27.012500762939453,27.001953125,40.83984375,895.3214111328125,-0.53,45.0,6.67,0.0,77.33,85.35,-0.47,77.33,85.34,-0.47,-0.03,44.53,6.66
74,4.078536748886108,794.6420108035811,27.006250381469727,27.0,40.8359375,894.5430297851562,-0.53,45.0,6.68,0.0,77.33,85.34,-0.47,77.33,85.33,-0.47,-0.03,44.53,6.67
75,4.135297536849976,794.6420108035811,27.0,26.994140625,40.828125,898.7390747070312,-0.53,45.0,6.7,0.0,77.33,85.32,-0.47,77.33,85.31,-0.47,-0.03,44.53,6.69
76,4.188281536102295,794.2269894851119,26.993749618530273,26.99609375,40.830078125,890.7726440429688,-0.53,45.0,6.72,0.0,77.33,85.3,-0.47,77.33,85.3,-0.47,-0.03,44.53,6.71
77,4.241645574569702,794.4529149785739,26.98750114440918,26.998046875,40.83203125,885.8345947265625,-0.53,45.0,6.73,0.0,77.33,85.29,-0.47,77.33,85.28,-0.47,-0.03,44.53,6.72
78,4.297446012496948,794.4529149785739,26.981250762939453,27.001953125,40.8359375,888.486083984375,-0.53,45.0,6.74,0.0,77.33,85.28,-0.47,77.33,85.26,-0.47,-0.03,44.53,6.74
79,4.351838111877441,794.8574457259025,26.978124618530273,27.0078125,40.84375,897.960693359375,-0.53,45.0,6.76,0.0,77.33,85.26,-0.47,77.33,85.25,-0.47,-0.03,44.53,6.75
80,4.406545639038086,794.8574457259025,26.97187614440918,27.009765625,40.84765625,912.7381591796875,-0.53,45.0,6.78,0.0,77.33,85.24,-0.47,77.33,85.24,-0.47,-0.03,44.53,6.76
81,4.462961673736572,803.4723817006352,26.965625762939453,27.01171875,40.849609375,896.6470947265625,-0.53,45.0,6.79,0.0,77.33,85.23,-0.47,77.33,85.22,-0.47,-0.03,44.53,6.79
82,4.519453763961792,803.4723817006352,26.959375381469727,27.009765625,40.845703125,886.1873168945312,-0.53,45.0,6.81,0.0,77.33,85.21,-0.47,77.33,85.21,-0.47,-0.03,44.53,6.79
83,4.57231879234314,792.3578180113232,26.95625114440918,27.0078125,40.83984375,884.14404296875,-0.54,45.0,6.82,0.0,77.34,85.2,-0.47,77.34,85.19,-0.47,-0.03,44.53,6.81
84,4.626884937286377,794.9169540404433,26.950000762939453,27.00390625,40.8359375,890.9064331054688,-0.54,45.0,6.84,0.0,77.34,85.18,-0.47,77.34,85.17,-0.47,-0.03,44.53,6.83
85,4.684940338134766,794.9169540404433,26.943750381469727,27.001953125,40.830078125,884.7034912109375,-0.54,45.0,6.86,0.0,77.34,85.16,-0.47,77.34,85.15,-0.47,-0.03,44.53,6.85
86,4.736962556838989,794.7470330895036,26.94062614440918,27.0,40.826171875,892.4389038085938,-0.54,45.0,6.87,0.0,77.34,85.15,-0.47,77.34,85.14,-0.47,-0.03,44.53,6.86
87,4.791000843048096,794.7470330895036,26.9375,26.99609375,40.822265625,902.1203002929688,-0.54,45.0,6.88,0.0,77.34,85.14,-0.47,77.34,85.13,-0.47,-0.03,44.53,6.87
88,4.847923040390015,792.4026910267062,26.931249618530273,27.0,40.826171875,890.6875,-0.54,45.0,6.9,0.0,77.34,85.12,-0.47,77.34,85.11,-0.47,-0.03,44.53,6.89
89,4.902711629867554,805.9314092931356,26.92500114440918,27.001953125,40.828125,882.3682861328125,-0.54,45.0,6.92,0.0,77.34,85.1,-0.47,77.34,85.1,-0.47,-0.03,44.53,6.91
90,4.956520080566406,805.9314092931356,26.921875,27.00390625,40.830078125,892.2686157226562,-0.54,45.0,6.93,0.0,77.34,85.09,-0.47,77.34,85.08,-0.47,-0.03,44.53,6.92
91,5.011208534240723,794.3422963382158,26.915624618530273,27.005859375,40.83203125,907.10693359375,-0.54,45.0,6.95,0.0,77.34,85.07,-0.47,77.34,85.06,-0.47,-0.03,44.53,6.94
92,5.070336818695068,794.3422963382158,26.912500381469727,27.009765625,40.837890625,887.7684936523438,-0.54,45.0,6.96,0.0,77.34,85.06,-0.47,77.34,85.05,-0.47,-0.03,44.53,6.95
93,5.124084949493408,794.4731843352208,26.90625,27.005859375,40.830078125,901.3905029296875,-0.54,45.0,6.98,0.0,77.34,85.04,-0.47,77.34,85.03,-0.47,-0.03,44.53,6.97
94,5.180476665496826,794.4731843352208,26.903125762939453,27.001953125,40.826171875,893.278076171875,-0.54,45.0,7.0,0.0,77.34,85.02,-0.47,77.34,85.02,-0.47,-0.03,44.53,6.99
95,5.234453916549683,795.0628469261529,26.899999618530273,27.0,40.822265625,890.748291015625,-0.54,45.0,7.01,0.0,77.34,85.01,-0.47,77.34,85.0,-0.47,-0.03,44.53,7.0
96,5.288319110870361,802.1653186796509,26.89375114440918,26.998046875,40.818359375,888.3036499023438,-0.54,45.0,7.03,0.0,77.34,84.99,-0.47,77.34,84.98,-0.47,-0.03,44.53,7.02
97,5.34528374671936,802.1653186796509,26.887500762939453,26.99609375,40.818359375,887.269775390625,-0.54,45.0,7.04,0.0,77.34,84.98,-0.47,77.34,84.97,-0.47,-0.03,44.53,7.03
98,5.399385929107666,793.8230367557177,26.884374618530273,26.99609375,40.814453125,882.9885864257812,-0.54,45.0,7.06,0.0,77.34,84.96,-0.47,77.34,84.95,-0.47,-0.03,44.53,7.05
99,5.455477714538574,793.8230367557177,26.881250381469727,26.998046875,40.8203125,877.19921875,-0.54,45.0,7.08,0.0,77.34,84.94,-0.47,77.34,84.94,-0.47,-0.03,44.53,7.07
100,5.511472463607788,793.974027986291,26.87812614440918,27.001953125,40.826171875,882.27099609375,-0.54,45.0,7.09,0.0,77.34,84.93,-0.47,77.34,84.92,-0.47,-0.03,44.53,7.08
101,5.56852912902832,793.8749382010642,26.871875762939453,27.00390625,40.826171875,883.5115966796875,-0.54,45.0,7.11,0.0,77.34,84.91,-0.47,77.34,84.9,-0.47,-0.03,44.53,7.1
102,5.620934247970581,793.8749382010642,26.868749618530273,27.00390625,40.826171875,893.7889404296875,-0.54,45.0,7.12,0.0,77.34,84.9,-0.47,77.34,84.89,-0.47,-0.03,44.53,7.11
103,5.67321515083313,794.2395013849126,26.865625381469727,27.00390625,40.826171875,888.814453125,-0.54,45.0,7.14,0.0,77.34,84.88,-0.47,77.34,84.87,-0.47,-0.03,44.53,7.13
104,5.7308595180511475,794.2395013849126,26.859375,27.0,40.818359375,881.9791259765625,-0.54,45.0,7.16,0.0,77.34,84.86,-0.47,77.34,84.86,-0.47,-0.03,44.53,7.14
105,5.7879064083099365,793.5819662831447,26.856250762939453,26.998046875,40.81640625,879.3154907226562,-0.54,45.0,7.17,0.0,77.34,84.85,-0.47,77.34,84.84,-0.47,-0.03,44.53,7.16
106,5.841398477554321,793.5819662831447,26.853124618530273,26.998046875,40.818359375,875.9829711914062,-0.54,45.0,7.19,0.0,77.34,84.83,-0.47,77.34,84.82,-0.47,-0.03,44.53,7.18
107,5.893705129623413,794.2814739157022,26.850000381469727,26.994140625,40.814453125,881.3466186523438,-0.54,45.0,7.2,0.0,77.34,84.82,-0.47,77.34,84.81,-0.47,-0.03,44.53,7.19
108,5.949077129364014,794.6259528775537,26.84687614440918,26.994140625,40.810546875,893.1321411132812,-0.54,45.0,7.22,0.0,77.34,84.8,-0.47,77.34,84.8,-0.47,-0.03,44.53,7.2
109,6.006309986114502,794.6259528775537,26.84375,26.998046875,40.814453125,893.4483642578125,-0.54,45.0,7.24,0.0,77.34,84.78,-0.47,77.34,84.78,-0.47,-0.03,44.53,7.22
110,6.059665679931641,793.8347067023526,26.840625762939453,27.0,40.818359375,878.92626953125,-0.54,45.0,7.25,0.0,77.34,84.77,-0.47,77.34,84.77,-0.47,-0.03,44.53,7.23
111,6.112115383148193,793.8347067023526,26.837499618530273,27.001953125,40.818359375,882.9155883789062,-0.54,45.0,7.27,0.0,77.34,84.75,-0.47,77.34,84.75,-0.47,-0.03,44.53,7.25
112,6.168644428253174,794.0389088442274,26.83125114440918,27.005859375,40.82421875,890.7969360351562,-0.54,45.0,7.28,0.0,77.34,84.74,-0.47,77.34,84.73,-0.47,-0.03,44.53,7.27
113,6.223280429840088,794.0389088442274,26.828125,27.00390625,40.8203125,881.4926147460938,-0.54,45.0,7.29,0.0,77.34,84.73,-0.47,77.34,84.72,-0.47,-0.03,44.53,7.28
114,6.275475978851318,794.6415315553295,26.825000762939453,27.0,40.81640625,888.4130859375,-0.54,45.0,7.31,0.0,77.34,84.71,-0.47,77.34,84.7,-0.47,-0.03,44.53,7.3
115,6.329057931900024,794.6415315553295,26.821874618530273,26.998046875,40.8125,894.214599609375,-0.54,45.0,7.33,0.0,77.34,84.69,-0.47,77.34,84.69,-0.47,-0.03,44.53,7.31
