,times,frequency,temperature,mass_flow,volume_flow,mouth_pressure,offset,theta,radius,alpha,z,x,alpha_ref,z_ref,x_ref,flow_ref,offset_ref,theta_ref,radius_ref
0,0.0,204.71320268453047,25.543750762939453,0.779296875,1.19140625,-7.042113304138184,-0.04,44.53,7.27,-0.47,77.34,84.74,-0.47,77.34,84.74,-0.47,-0.04,44.53,7.27
1,0.05463266372680664,100.0,25.543750762939453,1.828125,2.798828125,-7.042113304138184,-0.04,44.53,7.27,-0.47,77.34,84.74,-0.47,77.34,84.74,-0.47,-0.04,44.53,7.27
2,0.10848474502563477,100.0,25.543750762939453,2.298828125,3.515625,-7.042113304138184,-0.04,44.53,7.27,-0.47,77.34,84.74,-0.47,77.34,84.74,-0.47,-0.04,44.53,7.27
3,0.16408634185791016,178.2154876829476,25.543750762939453,2.037109375,3.115234375,-7.042113304138184,-0.04,44.53,7.27,-0.47,77.34,84.74,-0.47,77.34,84.74,-0.47,-0.04,44.53,7.27
4,0.2179257869720459,236.82459874172088,25.543750762939453,1.814453125,2.775390625,-7.042113304138184,-0.04,44.53,7.27,-0.47,77.34,84.74,-0.47,77.34,84.74,-0.47,-0.04,44.53,7.27
5,0.2709338665008545,236.82459874172088,25.543750762939453,1.556640625,2.380859375,-7.042113304138184,-0.04,44.53,7.27,-0.47,77.34,84.74,-0.47,77.34,84.74,-0.47,-0.04,44.53,7.27
6,0.3249526023864746,169.2008044719881,25.543750762939453,1.39453125,2.134765625,-7.042113304138184,-0.04,44.53,7.27,-0.47,77.34,84.74,-0.47,77.34,84.74,-0.47,-0.04,44.53,7.27
7,0.3778493404388428,193.33294085793136,25.543750762939453,1.3046875,1.99609375,-7.042113304138184,-0.04,44.53,7.27,-0.47,77.34,84.74,-0.47,77.34,84.74,-0.47,-0.04,44.53,7.27
8,0.43076467514038086,193.33294085793136,25.543750762939453,1.232421875,1.884765625,-7.042113304138184,-0.04,44.53,7.27,-0.47,77.34,84.74,-0.47,77.34,84.74,-0.47,-0.04,44.53,7.27
9,0.4850502014160156,256.313799550119,25.543750762939453,1.189453125,1.818359375,-7.042113304138184,-0.04,44.53,7.27,-0.47,77.34,84.74,-0.47,77.34,84.74,-0.47,-0.04,44.53,7.27
10,0.5388991832733154,105.56190687972943,25.543750762939453,1.150390625,1.759765625,-7.042113304138184,-0.04,44.53,7.27,-0.47,77.34,84.74,-0.47,77.34,84.74,-0.47,-0.04,44.53,7.27
11,0.5957589149475098,105.56190687972943,25.543750762939453,1.134765625,1.736328125,-7.042113304138184,-0.04,44.53,7.27,-0.47,77.34,84.74,-0.47,77.34,84.74,-0.47,-0.04,44.53,7.27
12,0.6492958068847656,109.2868693266762,25.543750762939453,1.126953125,1.72265625,-7.042113304138184,-0.04,44.53,7.27,-0.47,77.34,84.74,-0.47,77.34,84.74,-0.47,-0.04,44.53,7.27
13,0.7008447647094727,202.91806463982655,25.543750762939453,1.125,1.72265625,-7.042113304138184,-0.04,44.53,7.27,-0.47,77.34,84.74,-0.47,77.34,84.74,-0.47,-0.04,44.53,7.27
14,0.7549309730529785,202.91806463982655,25.543750762939453,1.130859375,1.73046875,-7.042113304138184,-0.04,44.53,7.27,-0.47,77.34,84.74,-0.47,77.34,84.74,-0.47,-0.04,44.53,7.26
15,0.8110551834106445,109.77513277521216,25.543750762939453,1.14453125,1.751953125,-7.042113304138184,-0.04,44.53,7.26,-0.47,77.34,84.74,-0.47,77.34,84.74,-0.47,-0.04,44.53,7.26
16,0.8636221885681152,109.77513277521216,25.543750762939453,1.158203125,1.7734375,-7.042113304138184,-0.04,44.53,7.26,-0.47,77.34,84.74,-0.47,77.34,84.74,-0.47,-0.04,44.53,7.26
17,0.9201657772064209,248.35975236611236,25.543750762939453,1.1875,1.818359375,-7.042113304138184,-0.04,44.53,7.26,-0.47,77.34,84.74,-0.47,77.34,84.74,-0.47,-0.04,44.53,7.26
18,0.9737191200256348,193.71836055689332,25.543750762939453,1.224609375,1.873046875,-7.042113304138184,-0.04,44.53,7.26,-0.47,77.34,84.74,-0.47,77.34,84.74,-0.47,-0.04,44.53,7.26
19,1.0276470184326172,238.59648313505377,25.543750762939453,1.271484375,1.9453125,-7.042113304138184,-0.04,44.53,7.26,-0.47,77.34,84.74,-0.47,77.34,84.74,-0.47,-0.04,44.53,7.26
20,1.0795652866363525,238.59648313505377,25.543750762939453,1.322265625,2.0234375,-7.042113304138184,-0.04,44.53,7.26,-0.47,77.34,84.74,-0.47,77.34,84.74,-0.47,-0.04,44.53,7.26
21,1.1353237628936768,188.5446921286924,25.543750762939453,1.412109375,2.16015625,-7.042113304138184,-0.04,44.53,7.26,-0.47,77.34,84.74,-0.47,77.34,84.74,-0.47,-0.04,44.53,7.26
22,1.1883883476257324,188.5446921286924,25.543750762939453,1.51953125,2.326171875,-7.042113304138184,-0.04,44.53,7.26,-0.47,77.34,84.74,-0.47,77.34,84.74,-0.47,-0.04,44.53,7.26
23,1.241718053817749,129.38142814431208,25.543750762939453,1.642578125,2.4765625,-7.042113304138184,-0.04,44.53,7.26,-0.47,77.34,84.74,-0.47,77.34,84.74,-0.47,-0.04,44.53,7.26
24,1.29738450050354,197.24270463760405,25.543750762939453,1.82421875,2.791015625,-7.042113304138184,-0.04,44.53,7.26,-0.47,77.34,84.74,-0.47,77.34,84.74,-0.47,-0.04,44.53,7.26
25,1.3502678871154785,177.83574025270877,25.543750762939453,1.96875,3.01171875,-7.042113304138184,-0.04,44.53,7.26,-0.47,77.34,84.74,-0.47,77.34,84.74,-0.47,-0.04,44.53,7.26
26,1.4029874801635742,177.83574025270877,25.543750762939453,2.177734375,3.33203125,-7.042113304138184,-0.04,44.53,7.26,-0.47,77.34,84.74,-0.47,77.34,84.74,-0.47,-0.04,44.53,7.26
27,1.457301139831543,100.0,25.543750762939453,2.390625,3.658203125,-7.042113304138184,-0.04,44.53,7.26,-0.47,77.34,84.74,-0.47,77.34,84.74,-0.47,-0.04,44.53,7.26
28,1.5166630744934082,100.0,25.543750762939453,2.578125,3.943359375,-7.042113304138184,-0.04,44.53,7.26,-0.47,77.34,84.74,-0.47,77.34,84.74,-0.47,-0.04,44.53,7.26
29,1.5695910453796387,203.4022313717119,25.543750762939453,2.744140625,4.19921875,-7.042113304138184,-0.04,44.53,7.26,-0.47,77.34,84.74,-0.47,77.34,84.74,-0.47,-0.04,44.53,7.26
30,1.6243176460266113,198.87897039235213,25.543750762939453,2.908203125,4.44921875,-7.042113304138184,-0.04,44.53,7.26,-0.47,77.34,84.74,-0.47,77.34,84.74,-0.47,-0.04,44.53,7.26
31,1.6810302734375,198.87897039235213,25.543750762939453,3.03125,4.63671875,-7.042113304138184,-0.04,44.53,7.26,-0.47,77.34,84.74,-0.47,77.34,84.74,-0.47,-0.04,44.53,7.26
32,1.7349498271942139,251.70251759599498,25.543750762939453,3.162109375,4.8359375,-7.042113304138184,-0.04,44.53,7.26,-0.47,77.34,84.74,-0.47,77.34,84.74,-0.47,-0.04,44.53,7.26
33,1.7898075580596924,102.78081280498225,25.540624618530273,3.265625,4.99609375,-7.042113304138184,-0.04,44.53,7.26,-0.47,77.34,84.74,-0.47,77.34,84.74,-0.47,-0.04,44.53,7.26
34,1.8444607257843018,102.78081280498225,25.540624618530273,3.39453125,5.19140625,-7.042113304138184,-0.04,44.53,7.26,-0.47,77.34,84.74,-0.47,77.34,84.74,-0.47,-0.04,44.53,7.26
35,1.8995578289031982,108.00041077439471,25.540624618530273,3.51953125,5.3828125,-7.042113304138184,-0.04,44.53,7.26,-0.47,77.34,84.74,-0.47,77.34,84.74,-0.47,-0.04,44.53,7.26
36,1.9518985748291016,126.05365109873395,25.540624618530273,3.6484375,5.58203125,-7.042113304138184,-0.04,44.53,7.26,-0.47,77.34,84.74,-0.47,77.34,84.74,-0.47,-0.04,44.53,7.26
37,2.006890296936035,162.23183800180772,25.540624618530273,3.748046875,5.734375,-7.042113304138184,-0.04,44.53,7.26,-0.47,77.34,84.74,-0.47,77.34,84.74,-0.47,-0.04,44.53,7.26
38,2.067939281463623,162.23183800180772,25.540624618530273,3.865234375,5.91015625,-7.042113304138184,-0.04,44.53,7.26,-0.47,77.34,84.74,-0.47,77.34,84.74,-0.47,-0.04,44.53,7.26
39,2.120131731033325,195.39784674622004,25.540624618530273,3.984375,6.095703125,-7.042113304138184,-0.04,44.53,7.26,-0.47,77.34,84.74,-0.47,77.34,84.74,-0.47,-0.04,44.53,7.26
40,2.172367572784424,189.41881810272764,25.537500381469727,4.107421875,6.283203125,-7.042113304138184,-0.04,44.53,7.26,-0.47,77.34,84.74,-0.47,77.34,84.74,-0.47,-0.04,44.53,7.26
41,2.224923849105835,189.41881810272764,25.537500381469727,4.197265625,6.41796875,-7.042113304138184,-0.04,44.53,7.26,-0.47,77.34,84.74,-0.47,77.34,84.74,-0.47,-0.04,44.53,7.26
42,2.2774529457092285,258.49641859177075,25.537500381469727,4.322265625,6.609375,-7.042113304138184,-0.04,44.53,7.26,-0.47,77.34,84.74,-0.47,77.34,84.74,-0.47,-0.04,44.53,7.26
43,2.331465005874634,210.23633403616105,25.537500381469727,4.421875,6.763671875,-7.042113304138184,-0.04,44.53,7.26,-0.47,77.34,84.74,-0.47,77.34,84.74,-0.47,-0.04,44.53,7.26
44,2.3854262828826904,210.23633403616105,25.537500381469727,4.521484375,6.916015625,-7.042113304138184,-0.04,44.53,7.26,-0.47,77.34,84.74,-0.47,77.34,84.74,-0.47,-0.04,44.53,7.26
45,2.437506675720215,175.8224646143648,25.53437614440918,4.658203125,7.123046875,-7.042113304138184,-0.04,44.53,7.26,-0.47,77.34,84.74,-0.47,77.34,84.74,-0.47,-0.04,44.53,7.26
46,2.490536689758301,175.8224646143648,25.53437614440918,4.76171875,7.28125,-7.042113304138184,-0.04,44.53,7.26,-0.47,77.34,84.74,-0.47,77.34,84.74,-0.47,-0.04,44.53,7.26
47,2.5442192554473877,176.65866532259463,25.53125,4.86328125,7.435546875,-7.042113304138184,-0.04,44.53,7.26,-0.47,77.34,84.74,-0.47,77.34,84.74,-0.47,-0.04,44.53,7.26
48,2.597205877304077,100.0,25.53125,4.974609375,7.60546875,-7.042113304138184,-0.04,44.53,7.26,-0.47,77.34,84.74,-0.47,77.34,84.74,-0.47,-0.04,44.53,7.26
49,2.6510627269744873,100.0,25.53125,5.068359375,7.748046875,-7.042113304138184,-0.04,44.53,7.26,-0.47,77.34,84.74,-0.47,77.34,84.74,-0.47,-0.04,44.53,7.26
50,2.7043371200561523,230.51533775505735,25.53125,5.19921875,7.94921875,-7.042113304138184,-0.04,44.53,7.26,-0.47,77.34,84.74,-0.47,77.34,84.74,-0.47,-0.04,44.53,7.26
51,2.7563467025756836,107.16277693632586,25.528125762939453,5.2890625,8.0859375,-7.042113304138184,-0.04,44.53,7.26,-0.47,77.34,84.74,-0.47,77.34,84.74,-0.47,-0.04,44.53,7.26
52,2.809654712677002,107.16277693632586,25.528125762939453,5.400390625,8.255859375,-7.042113304138184,-0.04,44.53,7.26,-0.47,77.34,84.74,-0.47,77.34,84.74,-0.47,-0.04,44.53,7.26
53,2.8649158477783203,105.94299060914709,25.528125762939453,5.513671875,8.4296875,-7.042113304138184,-0.04,44.53,7.26,-0.47,77.34,84.74,-0.47,77.34,84.74,-0.47,-0.04,44.53,7.26
54,2.9184532165527344,198.0673262082563,25.524999618530273,5.646484375,8.6328125,-7.042113304138184,-0.04,44.53,7.26,-0.47,77.34,84.74,-0.47,77.34,84.74,-0.47,-0.04,44.53,7.26
55,2.9714784622192383,198.0673262082563,25.524999618530273,5.744140625,8.783203125,-7.042113304138184,-0.04,44.53,7.26,-0.47,77.34,84.74,-0.47,77.34,84.74,-0.47,-0.04,44.53,7.26
56,3.0246081352233887,179.89566673823373,25.524999618530273,5.849609375,8.943359375,-7.042113304138184,-0.04,44.53,7.26,-0.47,77.34,84.74,-0.47,77.34,84.74,-0.47,-0.04,44.53,7.26
57,3.0816988945007324,176.90658155983917,25.521875381469727,5.96875,9.125,-7.042113304138184,-0.04,44.53,7.26,-0.47,77.34,84.74,-0.47,77.34,84.74,-0.47,-0.04,44.53,7.26
58,3.1360108852386475,100.0,25.521875381469727,6.064453125,9.271484375,-7.042113304138184,-0.04,44.53,7.26,-0.47,77.34,84.74,-0.47,77.34,84.74,-0.47,-0.04,44.53,7.26
59,3.1918716430664062,100.0,25.521875381469727,6.189453125,9.462890625,-7.042113304138184,-0.04,44.53,7.26,-0.47,77.34,84.74,-0.47,77.34,84.74,-0.47,-0.04,44.53,7.26
60,3.2476513385772705,100.0,25.51875114440918,6.298828125,9.630859375,-7.042113304138184,-0.04,44.53,7.26,-0.47,77.34,84.74,-0.47,77.34,84.74,-0.47,-0.04,44.53,7.26
61,3.301814556121826,100.0,25.515625,6.3984375,9.78125,-7.042113304138184,-0.04,44.53,7.26,-0.47,77.34,84.74,-0.47,77.34,84.74,-0.47,-0.04,44.53,7.26
62,3.357158660888672,111.47770204962269,25.515625,6.525390625,9.974609375,-7.042113304138184,-0.04,44.53,7.26,-0.47,77.34,84.74,-0.47,77.34,84.74,-0.47,-0.04,44.53,7.26
63,3.4120805263519287,180.8129781161839,25.515625,6.60546875,10.09765625,-7.042113304138184,-0.04,44.53,7.26,-0.47,77.34,84.74,-0.47,77.34,84.74,-0.47,-0.04,44.53,7.26
64,3.467508554458618,173.01593119950962,25.515625,6.728515625,10.28515625,-7.042113304138184,-0.04,44.53,7.26,-0.47,77.34,84.74,-0.47,77.34,84.74,-0.47,-0.04,44.53,7.26
65,3.522838830947876,173.01593119950962,25.512500762939453,6.85546875,10.478515625,-7.042113304138184,-0.04,44.53,7.26,-0.47,77.34,84.74,-0.47,77.34,84.74,-0.47,-0.04,44.53,7.26
66,3.579817533493042,181.986557461799,25.509374618530273,6.96875,10.6484375,-7.042113304138184,-0.04,44.53,7.26,-0.47,77.34,84.74,-0.47,77.34,84.74,-0.47,-0.04,44.53,7.26
67,3.6334145069122314,181.986557461799,25.509374618530273,7.072265625,10.80859375,-7.042113304138184,-0.04,44.53,7.26,-0.47,77.34,84.74,-0.47,77.34,84.74,-0.47,-0.04,44.53,7.26
68,3.6870579719543457,185.21841235217985,25.509374618530273,7.19140625,10.990234375,-7.042113304138184,-0.04,44.53,7.26,-0.47,77.34,84.74,-0.47,77.34,84.74,-0.47,-0.04,44.53,7.26
69,3.7399938106536865,185.7523272470347,25.506250381469727,7.30078125,11.158203125,-7.042113304138184,-0.04,44.53,7.26,-0.47,77.34,84.74,-0.47,77.34,84.74,-0.47,-0.04,44.53,7.26
70,3.7972888946533203,185.7523272470347,25.50312614440918,7.3828125,11.283203125,-7.042113304138184,-0.04,44.53,7.26,-0.47,77.34,84.74,-0.47,77.34,84.74,-0.47,-0.04,44.53,7.26
71,3.851675033569336,381.30727618567755,25.50312614440918,7.50390625,11.466796875,-7.042113304138184,-0.04,44.53,7.26,-0.47,77.34,84.74,-0.47,77.34,84.74,-0.47,-0.04,44.53,7.26
72,3.905372142791748,381.30727618567755,25.50312614440918,7.62890625,11.65625,-7.042113304138184,-0.04,44.53,7.26,-0.47,77.34,84.74,-0.47,77.34,84.74,-0.47,-0.04,44.53,7.26
73,3.9603888988494873,373.06648605656875,25.5,7.740234375,11.828125,-7.042113304138184,-0.04,44.53,7.26,-0.47,77.34,84.74,-0.47,77.34,84.74,-0.47,-0.04,44.53,7.26
74,4.013839483261108,376.169861180794,25.496875762939453,7.841796875,11.98046875,-7.042113304138184,-0.04,44.53,7.26,-0.47,77.34,84.74,-0.47,77.34,84.74,-0.47,-0.04,44.53,7.26
75,4.06680154800415,376.169861180794,25.496875762939453,7.943359375,12.13671875,-7.042113304138184,-0.04,44.53,7.26,-0.47,77.34,84.74,-0.47,77.34,84.74,-0.47,-0.04,44.53,7.26
76,4.119784116744995,378.6290692747501,25.493749618530273,8.060546875,12.314453125,-7.042113304138184,-0.04,44.53,7.26,-0.47,77.34,84.74,-0.47,77.34,84.74,-0.47,-0.04,44.53,7.26
77,4.171262741088867,379.9752069307731,25.493749618530273,8.1640625,12.470703125,-7.042113304138184,-0.04,44.53,7.26,-0.47,77.34,84.74,-0.47,77.34,84.74,-0.47,-0.04,44.53,7.26
78,4.224969148635864,379.9752069307731,25.490625381469727,8.26953125,12.630859375,-7.042113304138184,-0.04,44.53,7.26,-0.47,77.34,84.74,-0.47,77.34,84.74,-0.47,-0.04,44.53,7.26
79,4.277355194091797,379.6913989117388,25.490625381469727,8.35546875,12.76171875,-7.042113304138184,-0.04,44.53,7.26,-0.47,77.34,84.74,-0.47,77.34,84.74,-0.47,-0.04,44.53,7.26
80,4.332309722900391,380.21907196739653,25.48750114440918,8.48828125,12.962890625,-7.042113304138184,-0.04,44.53,7.26,-0.47,77.34,84.74,-0.47,77.34,84.74,-0.47,-0.04,44.53,7.26
81,4.386109828948975,380.21907196739653,25.48750114440918,8.59375,13.126953125,-7.042113304138184,-0.04,44.53,7.26,-0.47,77.34,84.74,-0.47,77.34,84.74,-0.47,-0.04,44.53,7.26
82,4.439713716506958,382.0644230479649,25.484375,8.6796875,13.2578125,-7.042113304138184,-0.04,44.53,7.26,-0.47,77.34,84.74,-0.47,77.34,84.74,-0.47,-0.04,44.53,7.26
83,4.495763063430786,382.0644230479649,25.481250762939453,8.7890625,13.423828125,-7.042113304138184,-0.04,44.53,7.26,-0.47,77.34,84.74,-0.47,77.34,84.74,-0.47,-0.04,44.53,7.26
84,4.553765058517456,388.6885594085275,25.481250762939453,8.9296875,13.63671875,-7.042113304138184,-0.04,44.53,7.26,-0.47,77.34,84.74,-0.47,77.34,84.74,-0.47,-0.04,44.53,7.26
85,4.605818748474121,382.91639978546726,25.478124618530273,9.02734375,13.787109375,-7.042113304138184,-0.04,44.53,7.26,-0.47,77.34,84.74,-0.47,77.34,84.74,-0.47,-0.04,44.53,7.26
86,4.662234306335449,382.91639978546726,25.475000381469727,9.12890625,13.94140625,-7.042113304138184,-0.04,44.53,7.26,-0.47,77.34,84.74,-0.47,77.34,84.74,-0.47,-0.04,44.53,7.26
87,4.715388774871826,383.4149083345108,25.475000381469727,9.25,14.125,-7.042113304138184,-0.04,44.53,7.26,-0.47,77.34,84.74,-0.47,77.34,84.74,-0.47,-0.04,44.53,7.26
88,4.77033543586731,383.6499365581251,25.47187614440918,9.34375,14.267578125,-7.042113304138184,-0.04,44.53,7.26,-0.47,77.34,84.74,-0.47,77.34,84.74,-0.47,-0.04,44.53,7.26
89,4.825278282165527,383.6499365581251,25.46875,9.466796875,14.453125,-7.042113304138184,-0.04,44.53,7.26,-0.47,77.34,84.74,-0.47,77.34,84.74,-0.47,-0.04,44.53,7.26
90,4.878599643707275,383.7396704372547,25.46875,9.580078125,14.625,-7.042113304138184,-0.04,44.53,7.26,-0.47,77.34,84.74,-0.47,77.34,84.74,-0.47,-0.04,44.53,7.26
91,4.934333562850952,384.5065980942272,25.465625762939453,9.685546875,14.787109375,-7.042113304138184,-0.04,44.53,7.26,-0.47,77.34,84.74,-0.47,77.34,84.74,-0.47,-0.04,44.53,7.26
92,4.987937927246094,384.5065980942272,25.462499618530273,9.8046875,14.96875,-7.042113304138184,-0.04,44.53,7.26,-0.47,77.34,84.74,-0.47,77.34,84.74,-0.47,-0.04,44.53,7.26
93,5.041046857833862,384.9640019889134,25.462499618530273,9.908203125,15.126953125,-7.042113304138184,-0.04,44.53,7.26,-0.47,77.34,84.74,-0.47,77.34,84.74,-0.47,-0.04,44.53,7.26
94,5.097790718078613,385.1441307038584,25.459375381469727,10.005859375,15.2734375,-7.042113304138184,-0.04,44.53,7.26,-0.47,77.34,84.74,-0.47,77.34,84.74,-0.47,-0.04,44.53,7.26
95,5.153332948684692,385.1441307038584,25.459375381469727,10.12890625,15.416015625,-7.042113304138184,-0.04,44.53,7.26,-0.47,77.34,84.74,-0.47,77.34,84.74,-0.47,-0.04,44.53,7.26
96,5.2062177658081055,395.77406610143527,25.45625114440918,10.224609375,15.60546875,-7.042113304138184,-0.04,44.53,7.26,-0.47,77.34,84.74,-0.47,77.34,84.74,-0.47,-0.04,44.53,7.26
97,5.259673118591309,395.77406610143527,25.453125,10.34375,15.7890625,-7.042113304138184,-0.04,44.53,7.26,-0.47,77.34,84.74,-0.47,77.34,84.74,-0.47,-0.04,44.53,7.26
98,5.313926935195923,385.8406683227897,25.450000762939453,10.447265625,15.943359375,-7.042113304138184,-0.04,44.53,7.26,-0.47,77.34,84.74,-0.47,77.34,84.74,-0.47,-0.04,44.53,7.26
99,5.369828462600708,385.9387744808734,25.450000762939453,10.55859375,16.11328125,-7.042113304138184,-0.04,44.53,7.26,-0.47,77.34,84.74,-0.47,77.34,84.74,-0.47,-0.04,44.53,7.26
100,5.422641038894653,385.9387744808734,25.446874618530273,10.6640625,16.271484375,-7.042113304138184,-0.04,44.53,7.26,-0.47,77.34,84.74,-0.47,77.34,84.74,-0.47,-0.04,44.53,7.26
101,5.476099014282227,386.9980875072511,25.443750381469727,10.779296875,16.4453125,-7.042113304138184,-0.04,44.53,7.26,-0.47,77.34,84.74,-0.47,77.34,84.74,-0.47,-0.04,44.53,7.26
102,5.52960991859436,387.7968289776411,25.44062614440918,10.884765625,16.60546875,-7.042113304138184,-0.04,44.53,7.26,-0.47,77.34,84.74,-0.47,77.34,84.74,-0.47,-0.04,44.53,7.26
103,5.589147090911865,387.7968289776411,25.44062614440918,10.998046875,16.78125,-7.042113304138184,-0.04,44.53,7.26,-0.47,77.34,84.74,-0.47,77.34,84.74,-0.47,-0.04,44.53,7.26
104,5.641066074371338,387.46452356658983,25.4375,11.119140625,16.96484375,-7.042113304138184,-0.04,44.53,7.26,-0.47,77.34,84.74,-0.47,77.34,84.74,-0.47,-0.04,44.53,7.26
105,5.695888519287109,387.7569688987186,25.434375762939453,11.20703125,17.09765625,-7.042113304138184,-0.04,44.53,7.26,-0.47,77.34,84.74,-0.47,77.34,84.74,-0.47,-0.04,44.53,7.26
106,5.752309083938599,387.7569688987186,25.434375762939453,11.326171875,17.279296875,-7.042113304138184,-0.04,44.53,7.26,-0.47,77.34,84.74,-0.47,77.34,84.74,-0.47,-0.04,44.53,7.26
107,5.806378364562988,388.34987451659134,25.431249618530273,11.435546875,17.443359375,-7.042113304138184,-0.04,44.53,7.26,-0.47,77.34,84.74,-0.47,77.34,84.74,-0.47,-0.04,44.53,7.26
108,5.85946249961853,387.7206380517582,25.428125381469727,11.548828125,17.61328125,-7.042113304138184,-0.04,44.53,7.26,-0.47,77.34,84.74,-0.47,77.34,84.74,-0.47,-0.04,44.53,7.26
109,5.915289878845215,387.7206380517582,25.42500114440918,11.650390625,17.76953125,-7.042113304138184,-0.04,44.53,7.26,-0.47,77.34,84.74,-0.47,77.34,84.74,-0.47,-0.04,44.53,7.26
110,5.967586517333984,389.13838873803155,25.42500114440918,11.767578125,17.9453125,-7.042113304138184,-0.04,44.53,7.26,-0.47,77.34,84.74,-0.47,77.34,84.74,-0.47,-0.04,44.53,7.26
111,6.019335985183716,388.2425332765865,25.421875,11.8828125,18.12109375,-7.042113304138184,-0.04,44.53,7.26,-0.47,77.34,84.74,-0.47,77.34,84.74,-0.47,-0.04,44.53,7.26
112,6.073748350143433,388.2425332765865,25.418750762939453,11.970703125,18.25390625,-7.042113304138184,-0.04,44.53,7.26,-0.47,77.34,84.74,-0.47,77.34,84.74,-0.47,-0.04,44.53,7.26
113,6.126246213912964,389.0730643982752,25.418750762939453,12.078125,18.41796875,-7.042113304138184,-0.04,44.53,7.26,-0.47,77.34,84.74,-0.47,77.34,84.74,-0.47,-0.04,44.53,7.26
