,times,frequency,temperature,mass_flow,volume_flow,mouth_pressure,offset,theta,radius,alpha,z,x,alpha_ref,z_ref,x_ref,flow_ref,offset_ref,theta_ref,radius_ref
0,0.0,2100.0,27.1875,0.7578125,1.1640625,-7.46780252456665,76.3,45.0,115.98,0.0,0.0,0.0,0.0,0.0,0.0,0.0,76.3,45.0,115.98
1,0.06696009635925293,2100.0,27.1875,0.755859375,1.1640625,-7.455639839172363,76.3,45.0,115.98,0.0,0.0,0.0,0.0,0.13,0.0,0.0,76.17,45.0,115.89
2,0.1306169033050537,2100.0,27.1875,0.755859375,1.1640625,-7.382664680480957,76.3,45.0,115.98,0.0,0.0,0.0,0.0,0.29,0.0,0.0,76.01,45.0,115.79
3,0.19257664680480957,2100.0,27.1875,0.755859375,1.162109375,-7.41915225982666,75.95,45.0,115.75,0.0,0.35,0.0,0.0,0.44,0.0,0.0,75.86,45.0,115.69
4,0.25569748878479004,2100.0,27.1875,0.755859375,1.162109375,-7.346177101135254,75.82,45.0,115.67,0.0,0.48,0.0,0.0,0.6,0.0,0.0,75.7,45.0,115.59
5,0.31789708137512207,2100.0,27.1875,0.755859375,1.1640625,-7.2367143630981445,75.69,45.0,115.58,0.0,0.61,0.0,0.0,0.76,0.0,0.0,75.54,45.0,115.49
6,0.37941789627075195,2100.0,27.1875,0.755859375,1.1640625,-7.078600883483887,75.56,45.0,115.49,0.0,0.74,0.0,0.0,0.92,0.0,0.0,75.38,45.0,115.38
7,0.4441535472869873,2100.0,27.1875,0.755859375,1.1640625,-6.811025142669678,75.3,45.0,115.32,0.0,1.0,0.0,0.0,1.07,0.0,0.0,75.23,45.0,115.28
8,0.5072963237762451,2100.0,27.1875,0.755859375,1.162109375,-7.042113304138184,75.17,45.0,115.24,0.0,1.13,0.0,0.0,1.23,0.0,0.0,75.07,45.0,115.18
9,0.5684504508972168,2100.0,27.1875,0.755859375,1.1640625,-6.798862457275391,75.04,45.0,115.16,0.0,1.26,0.0,0.0,1.38,0.0,0.0,74.92,45.0,115.08
10,0.631756067276001,2100.0,27.1875,0.755859375,1.1640625,-6.652912139892578,74.91,45.0,115.07,0.0,1.39,0.0,0.0,1.54,0.0,0.0,74.76,45.0,114.97
11,0.6922242641448975,2100.0,27.1875,0.7578125,1.1640625,-6.969138145446777,74.65,45.0,114.9,0.0,1.65,0.0,0.0,1.7,0.0,0.0,74.6,45.0,114.87
12,0.7563097476959229,2100.0,27.1875,0.7578125,1.1640625,-6.823187828063965,74.52,45.0,114.82,0.0,1.78,0.0,0.0,1.85,0.0,0.0,74.45,45.0,114.77
13,0.8185615539550781,2100.0,27.1875,0.7578125,1.1640625,-6.871837615966797,74.39,45.0,114.74,0.0,1.91,0.0,0.0,2.01,0.0,0.0,74.29,45.0,114.67
14,0.8800323009490967,2100.0,27.1875,0.7578125,1.1640625,-7.151576519012451,74.26,45.0,114.65,0.0,2.04,0.0,0.0,2.17,0.0,0.0,74.13,45.0,114.57
15,0.9431724548339844,2100.0,27.1875,0.755859375,1.1640625,-7.054275989532471,74.01,45.0,114.49,0.0,2.29,0.0,0.0,2.32,0.0,0.0,73.98,45.0,114.47
16,1.0044186115264893,2100.0,27.1875,0.755859375,1.1640625,-7.078600883483887,73.88,45.0,114.4,0.0,2.42,0.0,0.0,2.48,0.0,0.0,73.82,45.0,114.36
17,1.068042278289795,2100.0,27.1875,0.7578125,1.1640625,-7.309689521789551,73.75,45.0,114.32,0.0,2.55,0.0,0.0,2.64,0.0,0.0,73.66,45.0,114.26
18,1.1301517486572266,2100.0,27.1875,0.7578125,1.1640625,-7.175901412963867,73.62,45.0,114.24,0.0,2.68,0.0,0.0,2.79,0.0,0.0,73.51,45.0,114.17
19,1.1925606727600098,2100.0,27.1875,0.7578125,1.1640625,-7.46780252456665,73.37,45.0,114.07,0.0,2.93,0.0,0.0,2.95,0.0,0.0,73.35,45.0,114.07
20,1.254563570022583,2100.0,27.1875,0.7578125,1.1640625,-7.406989574432373,73.24,45.0,113.99,0.0,3.06,0.0,0.0,3.1,0.0,0.0,73.2,45.0,113.97
21,1.3189644813537598,2100.0,27.1875,0.7578125,1.1640625,-7.516452789306641,73.12,45.0,113.91,0.0,3.18,0.0,0.0,3.26,0.0,0.0,73.04,45.0,113.86
22,1.380054235458374,2100.0,27.1875,0.7578125,1.1640625,-7.711053371429443,72.99,45.0,113.83,0.0,3.31,0.0,0.0,3.42,0.0,0.0,72.88,45.0,113.76
23,1.4436001777648926,2100.0,27.19062614440918,0.7578125,1.1640625,-7.698890686035156,72.73,45.0,113.66,0.0,3.57,0.0,0.0,3.57,0.0,0.0,72.73,45.0,113.66
24,1.506946086883545,2100.0,27.19062614440918,0.755859375,1.1640625,-7.650240421295166,72.6,45.0,113.58,0.0,3.7,0.0,0.0,3.73,0.0,0.0,72.57,45.0,113.56
25,1.5673918724060059,2100.0,27.1875,0.755859375,1.1640625,-7.46780252456665,72.48,45.0,113.5,0.0,3.82,0.0,0.0,3.89,0.0,0.0,72.41,45.0,113.46
26,1.6306843757629395,2100.0,27.1875,0.755859375,1.1640625,-7.32185173034668,72.35,45.0,113.42,0.0,3.95,0.0,0.0,4.04,0.0,0.0,72.26,45.0,113.36
27,1.6921818256378174,2100.0,27.1875,0.755859375,1.162109375,-7.2367143630981445,72.1,45.0,113.26,0.0,4.2,0.0,0.0,4.2,0.0,0.0,72.1,45.0,113.27
28,1.7552952766418457,2100.0,27.19062614440918,0.755859375,1.1640625,-7.151576519012451,71.97,45.0,113.18,0.0,4.33,0.0,0.0,4.35,0.0,0.0,71.95,45.0,113.17
29,1.815103530883789,2100.0,27.1875,0.755859375,1.1640625,-6.932650566101074,71.84,45.0,113.1,0.0,4.46,0.0,0.0,4.51,0.0,0.0,71.79,45.0,113.07
30,1.8785631656646729,2100.0,27.19062614440918,0.755859375,1.162109375,-6.7623748779296875,71.72,45.0,113.02,0.0,4.58,0.0,0.0,4.66,0.0,0.0,71.64,45.0,112.97
31,1.9404034614562988,2100.0,27.19062614440918,0.755859375,1.162109375,-6.847512722015381,71.46,45.0,112.86,0.0,4.84,0.0,0.0,4.82,0.0,0.0,71.48,45.0,112.87
32,2.0034124851226807,2100.0,27.19062614440918,0.755859375,1.162109375,-6.847512722015381,71.34,45.0,112.78,0.0,4.96,0.0,0.0,4.97,0.0,0.0,71.33,45.0,112.77
33,2.0655369758605957,2100.0,27.1875,0.755859375,1.1640625,-6.896162986755371,71.21,45.0,112.7,0.0,5.09,0.0,0.0,5.13,0.0,0.0,71.17,45.0,112.67
34,2.1279244422912598,2100.0,27.1875,0.755859375,1.1640625,-7.102926254272461,71.08,45.0,112.62,0.0,5.22,0.0,0.0,5.29,0.0,0.0,71.01,45.0,112.57
35,2.190244436264038,2100.0,27.1875,0.755859375,1.1640625,-7.078600883483887,70.96,45.0,112.54,0.0,5.34,0.0,0.0,5.44,0.0,0.0,70.86,45.0,112.47
36,2.250789165496826,2100.0,27.1875,0.755859375,1.162109375,-7.175901412963867,70.7,45.0,112.38,0.0,5.6,0.0,0.0,5.6,0.0,0.0,70.7,45.0,112.38
37,2.314425230026245,2100.0,27.19062614440918,0.755859375,1.162109375,-7.11508846282959,70.58,45.0,112.3,0.0,5.72,0.0,0.0,5.76,0.0,0.0,70.54,45.0,112.28
38,2.3769123554229736,2100.0,27.19062614440918,0.755859375,1.1640625,-7.309689521789551,70.45,45.0,112.22,0.0,5.85,0.0,0.0,5.91,0.0,0.0,70.39,45.0,112.18
39,2.4392740726470947,2100.0,27.19062614440918,0.755859375,1.162109375,-7.334014415740967,70.32,45.0,112.14,0.0,5.98,0.0,0.0,6.07,0.0,0.0,70.23,45.0,112.08
40,2.5024774074554443,2100.0,27.19062614440918,0.755859375,1.162109375,-7.273201942443848,70.07,45.0,111.98,0.0,6.23,0.0,0.0,6.23,0.0,0.0,70.07,45.0,111.98
41,2.5638744831085205,2100.0,27.19062614440918,0.755859375,1.162109375,-7.285364151000977,69.95,45.0,111.9,0.0,6.35,0.0,0.0,6.38,0.0,0.0,69.92,45.0,111.89
42,2.6248435974121094,2100.0,27.19062614440918,0.755859375,1.162109375,-7.2610392570495605,69.82,45.0,111.82,0.0,6.48,0.0,0.0,6.53,0.0,0.0,69.77,45.0,111.79
43,2.6855170726776123,2100.0,27.19062614440918,0.755859375,1.162109375,-7.188064098358154,69.68,45.0,111.74,0.0,6.62,0.0,0.0,6.69,0.0,0.0,69.61,45.0,111.7
44,2.7471022605895996,2100.0,27.19062614440918,0.755859375,1.162109375,-7.16373872756958,69.44,45.0,111.59,0.0,6.86,0.0,0.0,6.84,0.0,0.0,69.46,45.0,111.6
45,2.8110814094543457,2100.0,27.1875,0.755859375,1.162109375,-7.017788410186768,69.31,45.0,111.51,0.0,6.99,0.0,0.0,7.0,0.0,0.0,69.3,45.0,111.5
46,2.871887445449829,2100.0,27.19062614440918,0.755859375,1.162109375,-7.066438674926758,69.19,45.0,111.43,0.0,7.11,0.0,0.0,7.15,0.0,0.0,69.15,45.0,111.41
47,2.9339098930358887,2100.0,27.1875,0.755859375,1.162109375,-6.9813008308410645,69.06,45.0,111.35,0.0,7.24,0.0,0.0,7.31,0.0,0.0,68.99,45.0,111.31
48,2.9966142177581787,2100.0,27.19062614440918,0.755859375,1.1640625,-6.7502121925354,68.81,45.0,111.2,0.0,7.49,0.0,0.0,7.47,0.0,0.0,68.83,45.0,111.21
49,3.0578651428222656,2100.0,27.19062614440918,0.755859375,1.1640625,-6.823187828063965,68.69,45.0,111.12,0.0,7.61,0.0,0.0,7.62,0.0,0.0,68.68,45.0,111.12
50,3.1203670501708984,2100.0,27.19062614440918,0.755859375,1.1640625,-6.95697546005249,68.56,45.0,111.04,0.0,7.74,0.0,0.0,7.78,0.0,0.0,68.52,45.0,111.02
51,3.183568000793457,2100.0,27.19062614440918,0.755859375,1.1640625,-6.835350036621094,68.43,45.0,110.96,0.0,7.87,0.0,0.0,7.93,0.0,0.0,68.37,45.0,110.92
52,3.246019124984741,2100.0,27.19062614440918,0.755859375,1.1640625,-6.9813008308410645,68.18,45.0,110.81,0.0,8.12,0.0,0.0,8.09,0.0,0.0,68.21,45.0,110.83
53,3.3080172538757324,2100.0,27.19062614440918,0.755859375,1.1640625,-7.0056257247924805,68.06,45.0,110.73,0.0,8.24,0.0,0.0,8.25,0.0,0.0,68.05,45.0,110.73
54,3.3716301918029785,2100.0,27.19062614440918,0.755859375,1.1640625,-7.151576519012451,67.93,45.0,110.65,0.0,8.37,0.0,0.0,8.4,0.0,0.0,67.9,45.0,110.64
55,3.431572914123535,2100.0,27.19062614440918,0.755859375,1.1640625,-7.2367143630981445,67.81,45.0,110.58,0.0,8.49,0.0,0.0,8.56,0.0,0.0,67.74,45.0,110.54
56,3.4943110942840576,2100.0,27.19062614440918,0.755859375,1.1640625,-7.200226306915283,67.55,45.0,110.42,0.0,8.75,0.0,0.0,8.71,0.0,0.0,67.59,45.0,110.45
57,3.5558857917785645,2100.0,27.19062614440918,0.755859375,1.1640625,-7.309689521789551,67.43,45.0,110.35,0.0,8.87,0.0,0.0,8.87,0.0,0.0,67.43,45.0,110.35
58,3.6186015605926514,2100.0,27.19062614440918,0.755859375,1.1640625,-7.16373872756958,67.3,45.0,110.27,0.0,9.0,0.0,0.0,9.02,0.0,0.0,67.28,45.0,110.25
59,3.6801135540008545,2100.0,27.19062614440918,0.755859375,1.162109375,-7.029951095581055,67.18,45.0,110.19,0.0,9.12,0.0,0.0,9.18,0.0,0.0,67.12,45.0,110.16
60,3.7428345680236816,2100.0,27.19062614440918,0.755859375,1.162109375,-6.9813008308410645,66.92,45.0,110.04,0.0,9.38,0.0,0.0,9.33,0.0,0.0,66.97,45.0,110.07
61,3.8046562671661377,2100.0,27.19062614440918,0.755859375,1.162109375,-6.835350036621094,66.8,45.0,109.96,0.0,9.5,0.0,0.0,9.49,0.0,0.0,66.81,45.0,109.97
62,3.866187334060669,2100.0,27.19062614440918,0.755859375,1.162109375,-6.969138145446777,66.67,45.0,109.89,0.0,9.63,0.0,0.0,9.64,0.0,0.0,66.66,45.0,109.88
63,3.9308106899261475,2100.0,27.19062614440918,0.755859375,1.162109375,-6.884000301361084,66.55,45.0,109.81,0.0,9.75,0.0,0.0,9.8,0.0,0.0,66.5,45.0,109.78
64,3.9928812980651855,2100.0,27.19062614440918,0.755859375,1.1640625,-6.798862457275391,66.3,45.0,109.66,0.0,10.0,0.0,0.0,9.95,0.0,0.0,66.35,45.0,109.69
65,4.055009365081787,2100.0,27.19062614440918,0.755859375,1.1640625,-6.7380499839782715,66.17,45.0,109.58,0.0,10.13,0.0,0.0,10.11,0.0,0.0,66.19,45.0,109.59
66,4.117312908172607,2100.0,27.19062614440918,0.755859375,1.1640625,-6.652912139892578,66.05,45.0,109.51,0.0,10.25,0.0,0.0,10.27,0.0,0.0,66.03,45.0,109.5
67,4.179276466369629,2100.0,27.19062614440918,0.755859375,1.1640625,-6.4947991371154785,65.92,45.0,109.43,0.0,10.38,0.0,0.0,10.43,0.0,0.0,65.87,45.0,109.4
68,4.242551565170288,2100.0,27.19062614440918,0.755859375,1.1640625,-6.385335922241211,65.67,45.0,109.28,0.0,10.63,0.0,0.0,10.58,0.0,0.0,65.72,45.0,109.31
69,4.303560256958008,2100.0,27.19062614440918,0.755859375,1.162109375,-6.458311080932617,65.54,45.0,109.2,0.0,10.76,0.0,0.0,10.73,0.0,0.0,65.57,45.0,109.22
70,4.366535186767578,2100.0,27.19062614440918,0.755859375,1.162109375,-6.288035869598389,65.42,45.0,109.13,0.0,10.88,0.0,0.0,10.89,0.0,0.0,65.41,45.0,109.12
71,4.429688453674316,2100.0,27.19062614440918,0.755859375,1.162109375,-6.215060234069824,65.29,45.0,109.06,0.0,11.01,0.0,0.0,11.05,0.0,0.0,65.25,45.0,109.03
72,4.490007638931274,2100.0,27.19062614440918,0.755859375,1.162109375,-6.069109916687012,65.05,45.0,108.91,0.0,11.25,0.0,0.0,11.2,0.0,0.0,65.1,45.0,108.94
73,4.553954362869263,2100.0,27.19062614440918,0.755859375,1.162109375,-5.959646701812744,64.92,45.0,108.83,0.0,11.38,0.0,0.0,11.36,0.0,0.0,64.94,45.0,108.84
74,4.616637468338013,2100.0,27.19062614440918,0.755859375,1.162109375,-5.923159122467041,64.79,45.0,108.76,0.0,11.51,0.0,0.0,11.52,0.0,0.0,64.78,45.0,108.75
75,4.6785736083984375,2100.0,27.19062614440918,0.755859375,1.162109375,-5.923159122467041,64.67,45.0,108.68,0.0,11.63,0.0,0.0,11.67,0.0,0.0,64.63,45.0,108.66
76,4.740353345870972,2100.0,27.19062614440918,0.755859375,1.162109375,-5.679908275604248,64.54,45.0,108.61,0.0,11.76,0.0,0.0,11.83,0.0,0.0,64.47,45.0,108.57
77,4.8019702434539795,2100.0,27.19062614440918,0.755859375,1.162109375,-5.789371490478516,64.29,45.0,108.46,0.0,12.01,0.0,0.0,11.98,0.0,0.0,64.32,45.0,108.47
78,4.865052700042725,2100.0,27.19062614440918,0.755859375,1.162109375,-5.509632587432861,64.17,45.0,108.39,0.0,12.13,0.0,0.0,12.14,0.0,0.0,64.16,45.0,108.38
79,4.924872398376465,2100.0,27.19062614440918,0.755859375,1.162109375,-5.388007164001465,64.04,45.0,108.31,0.0,12.26,0.0,0.0,12.29,0.0,0.0,64.01,45.0,108.29
80,4.989439010620117,2100.0,27.19062614440918,0.755859375,1.162109375,-5.582608222961426,63.91,45.0,108.24,0.0,12.39,0.0,0.0,12.45,0.0,0.0,63.85,45.0,108.2
81,5.051087141036987,2100.0,27.19062614440918,0.755859375,1.162109375,-5.509632587432861,63.66,45.0,108.09,0.0,12.64,0.0,0.0,12.61,0.0,0.0,63.69,45.0,108.11
82,5.115131855010986,2100.0,27.19062614440918,0.755859375,1.162109375,-5.594770431518555,63.54,45.0,108.01,0.0,12.76,0.0,0.0,12.76,0.0,0.0,63.54,45.0,108.01
83,5.174137592315674,2100.0,27.19062614440918,0.755859375,1.1640625,-5.558282852172852,63.41,45.0,107.94,0.0,12.89,0.0,0.0,12.92,0.0,0.0,63.38,45.0,107.92
84,5.23670220375061,2100.0,27.19062614440918,0.755859375,1.1640625,-5.570445537567139,63.29,45.0,107.87,0.0,13.01,0.0,0.0,13.07,0.0,0.0,63.23,45.0,107.83
85,5.298974514007568,2100.0,27.19062614440918,0.755859375,1.1640625,-5.7528839111328125,63.04,45.0,107.72,0.0,13.26,0.0,0.0,13.23,0.0,0.0,63.07,45.0,107.74
86,5.361093759536743,2100.0,27.19062614440918,0.755859375,1.162109375,-5.692070960998535,62.92,45.0,107.65,0.0,13.38,0.0,0.0,13.38,0.0,0.0,62.92,45.0,107.65
87,5.422724485397339,2100.0,27.19062614440918,0.755859375,1.162109375,-5.789371490478516,62.79,45.0,107.58,0.0,13.51,0.0,0.0,13.54,0.0,0.0,62.76,45.0,107.56
88,5.48917293548584,2100.0,27.19062614440918,0.755859375,1.162109375,-5.874509334564209,62.66,45.0,107.5,0.0,13.64,0.0,0.0,13.7,0.0,0.0,62.6,45.0,107.47
89,5.549302339553833,2100.0,27.19062614440918,0.755859375,1.162109375,-5.7528839111328125,62.41,45.0,107.36,0.0,13.89,0.0,0.0,13.86,0.0,0.0,62.44,45.0,107.37
90,5.612041473388672,2100.0,27.19062614440918,0.755859375,1.1640625,-5.813696384429932,62.29,45.0,107.28,0.0,14.01,0.0,0.0,14.01,0.0,0.0,62.29,45.0,107.28
91,5.675623893737793,2100.0,27.19062614440918,0.755859375,1.1640625,-5.765046119689941,62.16,45.0,107.21,0.0,14.14,0.0,0.0,14.17,0.0,0.0,62.13,45.0,107.19
92,5.737278938293457,2100.0,27.19062614440918,0.755859375,1.162109375,-5.9961347579956055,62.04,45.0,107.14,0.0,14.26,0.0,0.0,14.32,0.0,0.0,61.98,45.0,107.1
93,5.799842119216919,2100.0,27.19062614440918,0.755859375,1.162109375,-6.202898025512695,61.78,45.0,106.99,0.0,14.52,0.0,0.0,14.48,0.0,0.0,61.82,45.0,107.01
94,5.861955404281616,2100.0,27.19062614440918,0.755859375,1.162109375,-6.215060234069824,61.66,45.0,106.92,0.0,14.64,0.0,0.0,14.64,0.0,0.0,61.66,45.0,106.92
95,5.923093795776367,2100.0,27.19062614440918,0.755859375,1.162109375,-6.239385604858398,61.53,45.0,106.85,0.0,14.77,0.0,0.0,14.79,0.0,0.0,61.51,45.0,106.83
96,5.986166000366211,2100.0,27.19062614440918,0.755859375,1.162109375,-6.142085075378418,61.41,45.0,106.77,0.0,14.89,0.0,0.0,14.94,0.0,0.0,61.36,45.0,106.75
97,6.048136472702026,2100.0,27.19062614440918,0.755859375,1.162109375,-6.069109916687012,61.16,45.0,106.63,0.0,15.14,0.0,0.0,15.1,0.0,0.0,61.2,45.0,106.66
98,6.109755992889404,2100.0,27.19062614440918,0.755859375,1.162109375,-6.239385604858398,61.03,45.0,106.56,0.0,15.27,0.0,0.0,15.26,0.0,0.0,61.04,45.0,106.57
99,6.169938564300537,2100.0,27.19062614440918,0.755859375,1.162109375,-6.215060234069824,60.91,45.0,106.49,0.0,15.39,0.0,0.0,15.41,0.0,0.0,60.89,45.0,106.48
100,6.233275413513184,2100.0,27.19062614440918,0.755859375,1.162109375,-6.373173236846924,60.78,45.0,106.42,0.0,15.52,0.0,0.0,15.56,0.0,0.0,60.74,45.0,106.39
101,6.2949254512786865,2100.0,27.19062614440918,0.755859375,1.162109375,-6.409661293029785,60.53,45.0,106.27,0.0,15.77,0.0,0.0,15.72,0.0,0.0,60.58,45.0,106.3
102,6.357767820358276,2100.0,27.19062614440918,0.755859375,1.162109375,-6.4947991371154785,60.41,45.0,106.2,0.0,15.89,0.0,0.0,15.88,0.0,0.0,60.42,45.0,106.21
103,6.419299602508545,2100.0,27.19062614440918,0.755859375,1.162109375,-6.555611610412598,60.28,45.0,106.13,0.0,16.02,0.0,0.0,16.03,0.0,0.0,60.27,45.0,106.12
104,6.481666326522827,2100.0,27.19062614440918,0.755859375,1.162109375,-6.616424560546875,60.16,45.0,106.06,0.0,16.14,0.0,0.0,16.19,0.0,0.0,60.11,45.0,106.04
105,6.543844223022461,2100.0,27.19062614440918,0.755859375,1.162109375,-6.677237033843994,59.91,45.0,105.92,0.0,16.39,0.0,0.0,16.35,0.0,0.0,59.95,45.0,105.95
106,6.605882883071899,2100.0,27.19062614440918,0.755859375,1.162109375,-6.847512722015381,59.78,45.0,105.85,0.0,16.52,0.0,0.0,16.5,0.0,0.0,59.8,45.0,105.86
107,6.66994571685791,2100.0,27.19062614440918,0.755859375,1.162109375,-6.616424560546875,59.65,45.0,105.77,0.0,16.65,0.0,0.0,16.65,0.0,0.0,59.65,45.0,105.77
108,6.733317613601685,2100.0,27.19062614440918,0.755859375,1.162109375,-6.70156192779541,59.53,45.0,105.7,0.0,16.77,0.0,0.0,16.81,0.0,0.0,59.49,45.0,105.68
109,6.797116756439209,2100.0,27.19062614440918,0.755859375,1.162109375,-6.7380499839782715,59.28,45.0,105.56,0.0,17.02,0.0,0.0,16.97,0.0,0.0,59.33,45.0,105.59
110,6.857571125030518,2100.0,27.19062614440918,0.755859375,1.162109375,-6.859675407409668,59.15,45.0,105.49,0.0,17.15,0.0,0.0,17.13,0.0,0.0,59.17,45.0,105.5
111,6.920204401016235,2100.0,27.19062614440918,0.755859375,1.162109375,-7.066438674926758,59.03,45.0,105.43,0.0,17.27,0.0,0.0,17.28,0.0,0.0,59.02,45.0,105.42
112,6.981710433959961,2100.0,27.19062614440918,0.755859375,1.162109375,-6.9083251953125,58.9,45.0,105.36,0.0,17.4,0.0,0.0,17.44,0.0,0.0,58.86,45.0,105.33
113,7.042869329452515,2100.0,27.19062614440918,0.755859375,1.162109375,-7.127251148223877,58.65,45.0,105.21,0.0,17.65,0.0,0.0,17.59,0.0,0.0,58.71,45.0,105.25
114,7.106524229049683,2100.0,27.19062614440918,0.755859375,1.162109375,-6.993463039398193,58.53,45.0,105.14,0.0,17.77,0.0,0.0,17.75,0.0,0.0,58.55,45.0,105.16
115,7.16919469833374,2100.0,27.19062614440918,0.755859375,1.162109375,-6.9813008308410645,58.39,45.0,105.07,0.0,17.91,0.0,0.0,17.9,0.0,0.0,58.4,45.0,105.07
116,7.231254577636719,2100.0,27.19062614440918,0.755859375,1.162109375,-7.127251148223877,58.27,45.0,105.0,0.0,18.03,0.0,0.0,18.06,0.0,0.0,58.24,45.0,104.98
117,7.292831182479858,2100.0,27.19062614440918,0.755859375,1.162109375,-6.993463039398193,58.03,45.0,104.87,0.0,18.27,0.0,0.0,18.22,0.0,0.0,58.08,45.0,104.9
118,7.357008457183838,2100.0,27.19062614440918,0.755859375,1.162109375,-7.16373872756958,57.9,45.0,104.8,0.0,18.4,0.0,0.0,18.38,0.0,0.0,57.92,45.0,104.81
119,7.4193665981292725,2100.0,27.19062614440918,0.755859375,1.162109375,-6.993463039398193,57.77,45.0,104.73,0.0,18.53,0.0,0.0,18.53,0.0,0.0,57.77,45.0,104.72
120,7.481518030166626,2100.0,27.19062614440918,0.755859375,1.162109375,-6.7502121925354,57.65,45.0,104.66,0.0,18.65,0.0,0.0,18.69,0.0,0.0,57.61,45.0,104.64
121,7.543738842010498,2100.0,27.19062614440918,0.755859375,1.162109375,-6.70156192779541,57.4,45.0,104.52,0.0,18.9,0.0,0.0,18.85,0.0,0.0,57.45,45.0,104.55
122,7.60810112953186,2100.0,27.19062614440918,0.755859375,1.162109375,-6.604261875152588,57.28,45.0,104.45,0.0,19.02,0.0,0.0,19.0,0.0,0.0,57.3,45.0,104.46
123,7.66890287399292,2100.0,27.19062614440918,0.755859375,1.162109375,-6.665074348449707,57.15,45.0,104.39,0.0,19.15,0.0,0.0,19.16,0.0,0.0,57.14,45.0,104.38
124,7.733004331588745,2100.0,27.19062614440918,0.755859375,1.162109375,-6.7380499839782715,57.03,45.0,104.32,0.0,19.27,0.0,0.0,19.32,0.0,0.0,56.98,45.0,104.29
125,7.796522855758667,2100.0,27.19062614440918,0.755859375,1.162109375,-6.373173236846924,56.78,45.0,104.18,0.0,19.52,0.0,0.0,19.48,0.0,0.0,56.82,45.0,104.21
126,7.8570215702056885,2100.0,27.19062614440918,0.755859375,1.162109375,-6.5191240310668945,56.65,45.0,104.11,0.0,19.65,0.0,0.0,19.63,0.0,0.0,56.67,45.0,104.12
127,7.919190168380737,2100.0,27.19062614440918,0.755859375,1.162109375,-6.397498607635498,56.52,45.0,104.04,0.0,19.78,0.0,0.0,19.78,0.0,0.0,56.52,45.0,104.04
128,7.982876777648926,2100.0,27.19062614440918,0.755859375,1.162109375,-6.2637104988098145,56.4,45.0,103.98,0.0,19.9,0.0,0.0,19.94,0.0,0.0,56.36,45.0,103.95
129,8.043098449707031,2100.0,27.19062614440918,0.755859375,1.162109375,-6.385335922241211,56.15,45.0,103.84,0.0,20.15,0.0,0.0,20.0,0.0,0.0,56.3,45.0,103.92
