,times,frequency,temperature,mass_flow,volume_flow,mouth_pressure,offset,theta,radius,alpha,z,x,alpha_ref,z_ref,x_ref,flow_ref,offset_ref,theta_ref,radius_ref
0,0.0,2100.0,27.256250381469727,0.75390625,1.16015625,-6.616424560546875,76.3,45.0,115.98,0.0,0.0,0.0,0.0,0.0,0.0,0.0,76.3,45.0,115.98
1,0.07642412185668945,2100.0,27.256250381469727,0.75390625,1.16015625,-6.774537563323975,76.3,45.0,115.98,0.0,0.0,0.0,0.0,0.0,0.0,0.0,76.3,45.0,115.98
2,0.1411266326904297,2100.0,27.256250381469727,0.75390625,1.16015625,-6.920487880706787,76.3,45.0,115.98,0.0,0.0,0.0,0.0,0.0,0.0,0.0,76.3,45.0,115.98
3,0.20224761962890625,2100.0,27.256250381469727,0.75390625,1.16015625,-6.798862457275391,76.3,45.0,115.98,0.0,0.0,0.0,0.0,0.0,0.0,0.0,76.3,45.0,115.98
4,0.26661086082458496,2100.0,27.256250381469727,0.75390625,1.16015625,-6.798862457275391,76.3,45.0,115.98,0.0,0.0,0.0,0.0,0.0,0.0,0.0,76.3,45.0,115.98
5,0.3290722370147705,2100.0,27.256250381469727,0.75390625,1.16015625,-6.665074348449707,76.3,45.0,115.98,0.0,0.0,0.0,0.0,0.0,0.0,0.0,76.3,45.0,115.98
6,0.39148807525634766,2100.0,27.256250381469727,0.75390625,1.16015625,-6.616424560546875,76.3,45.0,115.98,0.0,0.0,0.0,0.0,0.0,0.0,0.0,76.3,45.0,115.98
7,0.45313072204589844,2100.0,27.256250381469727,0.75390625,1.16015625,-6.774537563323975,76.3,45.0,115.98,0.0,0.0,0.0,0.0,0.0,0.0,0.0,76.3,45.0,115.98
8,0.516211748123169,2100.0,27.256250381469727,0.75390625,1.16015625,-6.811025142669678,76.3,45.0,115.98,0.0,0.0,0.0,0.0,0.0,0.0,0.0,76.3,45.0,115.98
9,0.5780305862426758,2100.0,27.256250381469727,0.75390625,1.16015625,-6.944813251495361,76.3,45.0,115.98,0.0,0.0,0.0,0.0,0.0,0.0,0.0,76.3,45.0,115.98
10,0.6421997547149658,2100.0,27.256250381469727,0.75390625,1.16015625,-7.102926254272461,76.3,45.0,115.98,0.0,0.0,0.0,0.0,0.0,0.0,0.0,76.3,45.0,115.98
11,0.7030119895935059,2100.0,27.256250381469727,0.75390625,1.16015625,-7.017788410186768,76.3,45.0,115.98,0.0,0.0,0.0,0.0,0.0,0.0,0.0,76.3,45.0,115.98
12,0.7631046772003174,2100.0,27.256250381469727,0.75390625,1.16015625,-6.993463039398193,76.3,45.0,115.98,0.0,0.0,0.0,0.0,0.0,0.0,0.0,76.3,45.0,115.98
13,0.8262319564819336,2100.0,27.256250381469727,0.75390625,1.16015625,-6.859675407409668,76.3,45.0,115.98,0.0,0.0,0.0,0.0,0.0,0.0,0.0,76.3,45.0,115.98
14,0.8887465000152588,2100.0,27.256250381469727,0.75390625,1.16015625,-6.847512722015381,76.3,45.0,115.98,0.0,0.0,0.0,0.0,0.0,0.0,0.0,76.3,45.0,115.98
15,0.9518735408782959,2100.0,27.256250381469727,0.75390625,1.16015625,-6.944813251495361,76.3,45.0,115.98,0.0,0.0,0.0,0.0,0.0,0.0,0.0,76.3,45.0,115.98
16,1.0142178535461426,2100.0,27.256250381469727,0.75390625,1.16015625,-6.70156192779541,76.3,45.0,115.98,0.0,0.0,0.0,0.0,0.0,0.0,0.0,76.3,45.0,115.98
17,1.0768277645111084,2100.0,27.256250381469727,0.75390625,1.16015625,-6.823187828063965,76.3,45.0,115.98,0.0,0.0,0.0,0.0,0.0,0.0,0.0,76.3,45.0,115.98
18,1.1414132118225098,2100.0,27.256250381469727,0.75390625,1.16015625,-6.932650566101074,76.3,45.0,115.98,0.0,0.0,0.0,0.0,0.0,0.0,0.0,76.3,45.0,115.98
19,1.200942039489746,2100.0,27.256250381469727,0.75390625,1.16015625,-6.847512722015381,76.3,45.0,115.98,0.0,0.0,0.0,0.0,0.0,0.0,0.0,76.3,45.0,115.98
20,1.2629494667053223,2100.0,27.256250381469727,0.75390625,1.16015625,-6.993463039398193,76.3,45.0,115.98,0.0,0.0,0.0,0.0,0.0,0.0,0.0,76.3,45.0,115.98
21,1.3269131183624268,2100.0,27.256250381469727,0.75390625,1.16015625,-7.102926254272461,76.3,45.0,115.98,0.0,0.0,0.0,0.0,0.0,0.0,0.0,76.3,45.0,115.98
22,1.390850305557251,2100.0,27.256250381469727,0.75390625,1.16015625,-7.139413833618164,76.3,45.0,115.98,0.0,0.0,0.0,0.0,0.0,0.0,0.0,76.3,45.0,115.98
23,1.4520394802093506,2100.0,27.256250381469727,0.75390625,1.16015625,-7.188064098358154,76.3,45.0,115.98,0.0,0.0,0.0,0.0,0.0,0.0,0.0,76.3,45.0,115.98
24,1.5161919593811035,2100.0,27.256250381469727,0.75390625,1.16015625,-7.139413833618164,76.3,45.0,115.98,0.0,0.0,0.0,0.0,0.0,0.0,0.0,76.3,45.0,115.98
25,1.578240156173706,2100.0,27.256250381469727,0.75390625,1.16015625,-7.2610392570495605,76.3,45.0,115.98,0.0,0.0,0.0,0.0,0.0,0.0,0.0,76.3,45.0,115.98
26,1.6414101123809814,2100.0,27.256250381469727,0.75390625,1.16015625,-7.102926254272461,76.3,45.0,115.98,0.0,0.0,0.0,0.0,0.0,0.0,0.0,76.3,45.0,115.98
27,1.7044801712036133,2100.0,27.256250381469727,0.75390625,1.16015625,-7.11508846282959,76.3,45.0,115.98,0.0,0.0,0.0,0.0,0.0,0.0,0.0,76.3,45.0,115.98
28,1.767101764678955,2100.0,27.256250381469727,0.75390625,1.16015625,-7.127251148223877,76.3,45.0,115.98,0.0,0.0,0.0,0.0,0.0,0.0,0.0,76.3,45.0,115.98
29,1.8295669555664062,2100.0,27.256250381469727,0.75390625,1.16015625,-7.151576519012451,76.3,45.0,115.98,0.0,0.0,0.0,0.0,0.0,0.0,0.0,76.3,45.0,115.98
30,1.8933508396148682,2100.0,27.256250381469727,0.75390625,1.16015625,-6.944813251495361,76.3,45.0,115.98,0.0,0.0,0.0,0.0,0.0,0.0,0.0,76.3,45.0,115.98
31,1.9555587768554688,2100.0,27.256250381469727,0.75390625,1.16015625,-6.847512722015381,76.3,45.0,115.98,0.0,0.0,0.0,0.0,0.0,0.0,0.0,76.3,45.0,115.98
32,2.017158269882202,2100.0,27.256250381469727,0.75390625,1.16015625,-6.823187828063965,76.3,45.0,115.98,0.0,0.0,0.0,0.0,0.0,0.0,0.0,76.3,45.0,115.98
33,2.080031394958496,2100.0,27.256250381469727,0.75390625,1.16015625,-6.774537563323975,76.3,45.0,115.98,0.0,0.0,0.0,0.0,0.0,0.0,0.0,76.3,45.0,115.98
34,2.143251419067383,2100.0,27.256250381469727,0.75390625,1.16015625,-6.725887298583984,76.3,45.0,115.98,0.0,0.0,0.0,0.0,0.0,0.0,0.0,76.3,45.0,115.98
35,2.2049241065979004,2100.0,27.256250381469727,0.75390625,1.16015625,-6.713724613189697,76.3,45.0,115.98,0.0,0.0,0.0,0.0,0.0,0.0,0.0,76.3,45.0,115.98
36,2.267361879348755,2100.0,27.256250381469727,0.75390625,1.16015625,-6.604261875152588,76.3,45.0,115.98,0.0,0.0,0.0,0.0,0.0,0.0,0.0,76.3,45.0,115.98
37,2.329943895339966,2100.0,27.256250381469727,0.75390625,1.16015625,-6.725887298583984,76.3,45.0,115.98,0.0,0.0,0.0,0.0,0.0,0.0,0.0,76.3,45.0,115.98
38,2.3922433853149414,2100.0,27.256250381469727,0.75390625,1.16015625,-6.713724613189697,76.3,45.0,115.98,0.0,0.0,0.0,0.0,0.0,0.0,0.0,76.3,45.0,115.98
39,2.4537060260772705,2100.0,27.256250381469727,0.75390625,1.16015625,-6.579936504364014,76.3,45.0,115.98,0.0,0.0,0.0,0.0,0.0,0.0,0.0,76.3,45.0,115.98
40,2.5163519382476807,2100.0,27.256250381469727,0.75390625,1.16015625,-6.725887298583984,76.3,45.0,115.98,0.0,0.0,0.0,0.0,0.0,0.0,0.0,76.3,45.0,115.98
41,2.5787291526794434,2100.0,27.256250381469727,0.75390625,1.16015625,-6.555611610412598,76.3,45.0,115.98,0.0,0.0,0.0,0.0,0.0,0.0,0.0,76.3,45.0,115.98
42,2.6409406661987305,2100.0,27.256250381469727,0.75390625,1.16015625,-6.677237033843994,76.3,45.0,115.98,0.0,0.0,0.0,0.0,0.0,0.0,0.0,76.3,45.0,115.98
43,2.702810525894165,2100.0,27.256250381469727,0.75390625,1.16015625,-6.70156192779541,76.3,45.0,115.98,0.0,0.0,0.0,0.0,0.0,0.0,0.0,76.3,45.0,115.98
44,2.7664332389831543,2100.0,27.256250381469727,0.75390625,1.16015625,-6.604261875152588,76.3,45.0,115.98,0.0,0.0,0.0,0.0,0.0,0.0,0.0,76.3,45.0,115.98
45,2.828735828399658,2100.0,27.256250381469727,0.75390625,1.16015625,-6.7866997718811035,76.3,45.0,115.98,0.0,0.0,0.0,0.0,0.0,0.0,0.0,76.3,45.0,115.98
46,2.8917813301086426,2100.0,27.256250381469727,0.75390625,1.16015625,-6.7866997718811035,76.3,45.0,115.98,0.0,0.0,0.0,0.0,0.0,0.0,0.0,76.3,45.0,115.98
47,2.9532582759857178,2100.0,27.256250381469727,0.75390625,1.16015625,-6.665074348449707,76.3,45.0,115.98,0.0,0.0,0.0,0.0,0.0,0.0,0.0,76.3,45.0,115.98
48,3.0158936977386475,2100.0,27.256250381469727,0.75390625,1.16015625,-6.7866997718811035,76.3,45.0,115.98,0.0,0.0,0.0,0.0,0.0,0.0,0.0,76.3,45.0,115.98
49,3.07791805267334,2100.0,27.256250381469727,0.75390625,1.16015625,-6.7502121925354,76.3,45.0,115.98,0.0,0.0,0.0,0.0,0.0,0.0,0.0,76.3,45.0,115.98
50,3.140732765197754,2100.0,27.256250381469727,0.75390625,1.16015625,-6.896162986755371,76.3,45.0,115.98,0.0,0.0,0.0,0.0,0.0,0.0,0.0,76.3,45.0,115.98
51,3.203277111053467,2100.0,27.256250381469727,0.75390625,1.16015625,-7.0056257247924805,76.3,45.0,115.98,0.0,0.0,0.0,0.0,0.0,0.0,0.0,76.3,45.0,115.98
52,3.2646775245666504,2100.0,27.256250381469727,0.75390625,1.16015625,-6.871837615966797,76.3,45.0,115.98,0.0,0.0,0.0,0.0,0.0,0.0,0.0,76.3,45.0,115.98
53,3.327787399291992,2100.0,27.256250381469727,0.75390625,1.16015625,-7.029951095581055,76.3,45.0,115.98,0.0,0.0,0.0,0.0,0.0,0.0,0.0,76.3,45.0,115.98
54,3.3899316787719727,2100.0,27.256250381469727,0.75390625,1.16015625,-7.297526836395264,76.3,45.0,115.98,0.0,0.0,0.0,0.0,0.0,0.0,0.0,76.3,45.0,115.98
55,3.4521567821502686,2100.0,27.256250381469727,0.75390625,1.16015625,-7.200226306915283,76.3,45.0,115.98,0.0,0.0,0.0,0.0,0.0,0.0,0.0,76.3,45.0,115.98
56,3.513984203338623,2100.0,27.256250381469727,0.75390625,1.16015625,-7.32185173034668,76.3,45.0,115.98,0.0,0.0,0.0,0.0,0.0,0.0,0.0,76.3,45.0,115.98
57,3.5762362480163574,2100.0,27.256250381469727,0.75390625,1.16015625,-7.188064098358154,76.3,45.0,115.98,0.0,0.0,0.0,0.0,0.0,0.0,0.0,76.3,45.0,115.98
58,3.639059543609619,2100.0,27.256250381469727,0.75390625,1.16015625,-7.2610392570495605,76.3,45.0,115.98,0.0,0.0,0.0,0.0,0.0,0.0,0.0,76.3,45.0,115.98
59,3.7012038230895996,2100.0,27.256250381469727,0.75390625,1.16015625,-7.297526836395264,76.3,45.0,115.98,0.0,0.0,0.0,0.0,0.0,0.0,0.0,76.3,45.0,115.98
60,3.765071153640747,2100.0,27.256250381469727,0.75390625,1.16015625,-7.139413833618164,76.3,45.0,115.98,0.0,0.0,0.0,0.0,0.0,0.0,0.0,76.3,45.0,115.98
61,3.82791805267334,2100.0,27.256250381469727,0.75390625,1.16015625,-7.309689521789551,76.3,45.0,115.98,0.0,0.0,0.0,0.0,0.0,0.0,0.0,76.3,45.0,115.98
62,3.891308069229126,2100.0,27.256250381469727,0.75390625,1.16015625,-7.2367143630981445,76.3,45.0,115.98,0.0,0.0,0.0,0.0,0.0,0.0,0.0,76.3,45.0,115.98
63,3.9534878730773926,2100.0,27.256250381469727,0.75390625,1.16015625,-7.273201942443848,76.3,45.0,115.98,0.0,0.0,0.0,0.0,0.0,0.0,0.0,76.3,45.0,115.98
64,4.016833782196045,2100.0,27.256250381469727,0.75390625,1.16015625,-7.334014415740967,76.3,45.0,115.98,0.0,0.0,0.0,0.0,0.0,0.0,0.0,76.3,45.0,115.98
65,4.078915357589722,2100.0,27.256250381469727,0.75390625,1.16015625,-7.273201942443848,76.3,45.0,115.98,0.0,0.0,0.0,0.0,0.0,0.0,0.0,76.3,45.0,115.98
66,4.141611576080322,2100.0,27.256250381469727,0.75390625,1.16015625,-7.078600883483887,76.3,45.0,115.98,0.0,0.0,0.0,0.0,0.0,0.0,0.0,76.3,45.0,115.98
67,4.203341007232666,2100.0,27.256250381469727,0.75390625,1.16015625,-7.11508846282959,76.3,45.0,115.98,0.0,0.0,0.0,0.0,0.0,0.0,0.0,76.3,45.0,115.98
68,4.2651283740997314,2100.0,27.256250381469727,0.75390625,1.16015625,-7.090763568878174,76.3,45.0,115.98,0.0,0.0,0.0,0.0,0.0,0.0,0.0,76.3,45.0,115.98
69,4.327253103256226,2100.0,27.256250381469727,0.75390625,1.16015625,-7.200226306915283,76.3,45.0,115.98,0.0,0.0,0.0,0.0,0.0,0.0,0.0,76.3,45.0,115.98
70,4.388514757156372,2100.0,27.256250381469727,0.75390625,1.16015625,-7.32185173034668,76.3,45.0,115.98,0.0,0.0,0.0,0.0,0.0,0.0,0.0,76.3,45.0,115.98
71,4.452030897140503,2100.0,27.256250381469727,0.75390625,1.16015625,-7.431314945220947,76.3,45.0,115.98,0.0,0.0,0.0,0.0,0.0,0.0,0.0,76.3,45.0,115.98
72,4.513577699661255,2100.0,27.256250381469727,0.75390625,1.16015625,-7.358339786529541,76.3,45.0,115.98,0.0,0.0,0.0,0.0,0.0,0.0,0.0,76.3,45.0,115.98
73,4.575703859329224,2100.0,27.256250381469727,0.75390625,1.16015625,-7.358339786529541,76.3,45.0,115.98,0.0,0.0,0.0,0.0,0.0,0.0,0.0,76.3,45.0,115.98
74,4.639512062072754,2100.0,27.256250381469727,0.75390625,1.16015625,-7.21238899230957,76.3,45.0,115.98,0.0,0.0,0.0,0.0,0.0,0.0,0.0,76.3,45.0,115.98
75,4.703260660171509,2100.0,27.256250381469727,0.75390625,1.16015625,-7.102926254272461,76.3,45.0,115.98,0.0,0.0,0.0,0.0,0.0,0.0,0.0,76.3,45.0,115.98
76,4.766707420349121,2100.0,27.256250381469727,0.75390625,1.16015625,-7.151576519012451,76.3,45.0,115.98,0.0,0.0,0.0,0.0,0.0,0.0,0.0,76.3,45.0,115.98
77,4.828485488891602,2100.0,27.256250381469727,0.75390625,1.16015625,-7.078600883483887,76.3,45.0,115.98,0.0,0.0,0.0,0.0,0.0,0.0,0.0,76.3,45.0,115.98
78,4.890993356704712,2100.0,27.256250381469727,0.75390625,1.16015625,-7.200226306915283,76.3,45.0,115.98,0.0,0.0,0.0,0.0,0.0,0.0,0.0,76.3,45.0,115.98
79,4.9535698890686035,2100.0,27.256250381469727,0.75390625,1.16015625,-7.21238899230957,76.3,45.0,115.98,0.0,0.0,0.0,0.0,0.0,0.0,0.0,76.3,45.0,115.98
80,5.027009725570679,2100.0,27.256250381469727,0.75390625,1.16015625,-7.273201942443848,76.3,45.0,115.98,0.0,0.0,0.0,0.0,0.0,0.0,0.0,76.3,45.0,115.98
81,5.087894916534424,2100.0,27.256250381469727,0.75390625,1.16015625,-7.273201942443848,76.3,45.0,115.98,0.0,0.0,0.0,0.0,0.0,0.0,0.0,76.3,45.0,115.98
82,5.149874925613403,2100.0,27.256250381469727,0.75390625,1.16015625,-7.394827365875244,76.3,45.0,115.98,0.0,0.0,0.0,0.0,0.0,0.0,0.0,76.3,45.0,115.98
83,5.211249589920044,2100.0,27.256250381469727,0.75390625,1.16015625,-7.309689521789551,76.3,45.0,115.98,0.0,0.0,0.0,0.0,0.0,0.0,0.0,76.3,45.0,115.98
84,5.275578737258911,2100.0,27.256250381469727,0.75390625,1.16015625,-7.285364151000977,76.3,45.0,115.98,0.0,0.0,0.0,0.0,0.0,0.0,0.0,76.3,45.0,115.98
85,5.337455749511719,2100.0,27.256250381469727,0.75390625,1.16015625,-7.406989574432373,76.3,45.0,115.98,0.0,0.0,0.0,0.0,0.0,0.0,0.0,76.3,45.0,115.98
86,5.399808645248413,2100.0,27.256250381469727,0.75390625,1.16015625,-7.358339786529541,76.3,45.0,115.98,0.0,0.0,0.0,0.0,0.0,0.0,0.0,76.3,45.0,115.98
87,5.4614667892456055,2100.0,27.256250381469727,0.75390625,1.16015625,-7.516452789306641,76.3,45.0,115.98,0.0,0.0,0.0,0.0,0.0,0.0,0.0,76.3,45.0,115.98
88,5.524686813354492,2100.0,27.256250381469727,0.75390625,1.16015625,-7.540777683258057,76.3,45.0,115.98,0.0,0.0,0.0,0.0,0.0,0.0,0.0,76.3,45.0,115.98
89,5.5871686935424805,2100.0,27.256250381469727,0.75390625,1.16015625,-7.358339786529541,76.3,45.0,115.98,0.0,0.0,0.0,0.0,0.0,0.0,0.0,76.3,45.0,115.98
90,5.648753643035889,2100.0,27.256250381469727,0.75390625,1.16015625,-7.46780252456665,76.3,45.0,115.98,0.0,0.0,0.0,0.0,0.0,0.0,0.0,76.3,45.0,115.98
91,5.7104456424713135,2100.0,27.256250381469727,0.75390625,1.16015625,-7.273201942443848,76.3,45.0,115.98,0.0,0.0,0.0,0.0,0.0,0.0,0.0,76.3,45.0,115.98
92,5.773028612136841,2100.0,27.256250381469727,0.75390625,1.16015625,-7.2610392570495605,76.3,45.0,115.98,0.0,0.0,0.0,0.0,0.0,0.0,0.0,76.3,45.0,115.98
93,5.835039377212524,2100.0,27.256250381469727,0.75390625,1.16015625,-7.297526836395264,76.3,45.0,115.98,0.0,0.0,0.0,0.0,0.0,0.0,0.0,76.3,45.0,115.98
94,5.897181034088135,2100.0,27.256250381469727,0.75390625,1.16015625,-7.066438674926758,76.3,45.0,115.98,0.0,0.0,0.0,0.0,0.0,0.0,0.0,76.3,45.0,115.98
95,5.959898471832275,2100.0,27.256250381469727,0.75390625,1.16015625,-7.017788410186768,76.3,45.0,115.98,0.0,0.0,0.0,0.0,0.0,0.0,0.0,76.3,45.0,115.98
96,6.023289442062378,2100.0,27.256250381469727,0.75390625,1.16015625,-6.871837615966797,76.3,45.0,115.98,0.0,0.0,0.0,0.0,0.0,0.0,0.0,76.3,45.0,115.98
97,6.085207939147949,2100.0,27.256250381469727,0.75390625,1.16015625,-6.592099189758301,76.3,45.0,115.98,0.0,0.0,0.0,0.0,0.0,0.0,0.0,76.3,45.0,115.98
98,6.146584987640381,2100.0,27.256250381469727,0.75390625,1.16015625,-6.567774295806885,76.3,45.0,115.98,0.0,0.0,0.0,0.0,0.0,0.0,0.0,76.3,45.0,115.98
99,6.209445476531982,2100.0,27.256250381469727,0.75390625,1.16015625,-6.506961345672607,76.3,45.0,115.98,0.0,0.0,0.0,0.0,0.0,0.0,0.0,76.3,45.0,115.98
100,6.272081613540649,2100.0,27.256250381469727,0.75390625,1.16015625,-6.409661293029785,76.3,45.0,115.98,0.0,0.0,0.0,0.0,0.0,0.0,0.0,76.3,45.0,115.98
101,6.334795713424683,2100.0,27.256250381469727,0.75390625,1.16015625,-6.336685657501221,76.3,45.0,115.98,0.0,0.0,0.0,0.0,0.0,0.0,0.0,76.3,45.0,115.98
102,6.397997617721558,2100.0,27.256250381469727,0.75390625,1.16015625,-6.190735340118408,76.3,45.0,115.98,0.0,0.0,0.0,0.0,0.0,0.0,0.0,76.3,45.0,115.98
103,6.459838628768921,2100.0,27.256250381469727,0.75390625,1.16015625,-6.239385604858398,76.3,45.0,115.98,0.0,0.0,0.0,0.0,0.0,0.0,0.0,76.3,45.0,115.98
104,6.522022008895874,2100.0,27.256250381469727,0.75390625,1.16015625,-5.9961347579956055,76.3,45.0,115.98,0.0,0.0,0.0,0.0,0.0,0.0,0.0,76.3,45.0,115.98
105,6.5848610401153564,2100.0,27.256250381469727,0.75390625,1.16015625,-5.825859069824219,76.3,45.0,115.98,0.0,0.0,0.0,0.0,0.0,0.0,0.0,76.3,45.0,115.98
106,6.647360563278198,2100.0,27.256250381469727,0.75390625,1.16015625,-5.959646701812744,76.3,45.0,115.98,0.0,0.0,0.0,0.0,0.0,0.0,0.0,76.3,45.0,115.98
107,6.7100677490234375,2100.0,27.256250381469727,0.75390625,1.16015625,-5.850183963775635,76.3,45.0,115.98,0.0,0.0,0.0,0.0,0.0,0.0,0.0,76.3,45.0,115.98
108,6.774276256561279,2100.0,27.256250381469727,0.75390625,1.16015625,-6.008296966552734,76.3,45.0,115.98,0.0,0.0,0.0,0.0,0.0,0.0,0.0,76.3,45.0,115.98
109,6.83699893951416,2100.0,27.256250381469727,0.75390625,1.16015625,-5.959646701812744,76.3,45.0,115.98,0.0,0.0,0.0,0.0,0.0,0.0,0.0,76.3,45.0,115.98
110,6.89935302734375,2100.0,27.256250381469727,0.75390625,1.16015625,-5.9961347579956055,76.3,45.0,115.98,0.0,0.0,0.0,0.0,0.0,0.0,0.0,76.3,45.0,115.98
111,6.962057590484619,2100.0,27.256250381469727,0.75390625,1.16015625,-5.983972072601318,76.3,45.0,115.98,0.0,0.0,0.0,0.0,0.0,0.0,0.0,76.3,45.0,115.98
112,7.024630784988403,2100.0,27.256250381469727,0.75390625,1.16015625,-5.910996913909912,76.3,45.0,115.98,0.0,0.0,0.0,0.0,0.0,0.0,0.0,76.3,45.0,115.98
113,7.088195562362671,2100.0,27.256250381469727,0.75390625,1.16015625,-6.032622337341309,76.3,45.0,115.98,0.0,0.0,0.0,0.0,0.0,0.0,0.0,76.3,45.0,115.98
114,7.149869680404663,2100.0,27.256250381469727,0.75390625,1.16015625,-6.0204596519470215,76.3,45.0,115.98,0.0,0.0,0.0,0.0,0.0,0.0,0.0,76.3,45.0,115.98
115,7.211945533752441,2100.0,27.256250381469727,0.75390625,1.16015625,-6.0204596519470215,76.3,45.0,115.98,0.0,0.0,0.0,0.0,0.0,0.0,0.0,76.3,45.0,115.98
116,7.27444314956665,2100.0,27.256250381469727,0.75390625,1.16015625,-6.0447845458984375,76.3,45.0,115.98,0.0,0.0,0.0,0.0,0.0,0.0,0.0,76.3,45.0,115.98
117,7.33753228187561,2100.0,27.256250381469727,0.75390625,1.16015625,-6.129922389984131,76.3,45.0,115.98,0.0,0.0,0.0,0.0,0.0,0.0,0.0,76.3,45.0,115.98
118,7.399669647216797,2100.0,27.256250381469727,0.75390625,1.16015625,-6.081272602081299,76.3,45.0,115.98,0.0,0.0,0.0,0.0,0.0,0.0,0.0,76.3,45.0,115.98
119,7.463279724121094,2100.0,27.256250381469727,0.75390625,1.16015625,-6.0204596519470215,76.3,45.0,115.98,0.0,0.0,0.0,0.0,0.0,0.0,0.0,76.3,45.0,115.98
120,7.5246758460998535,2100.0,27.256250381469727,0.75390625,1.16015625,-6.190735340118408,76.3,45.0,115.98,0.0,0.0,0.0,0.0,0.0,0.0,0.0,76.3,45.0,115.98
121,7.585971355438232,2100.0,27.256250381469727,0.75390625,1.16015625,-6.348848342895508,76.3,45.0,115.98,0.0,0.0,0.0,0.0,0.0,0.0,0.0,76.3,45.0,115.98
122,7.64808988571167,2100.0,27.256250381469727,0.75390625,1.16015625,-6.336685657501221,76.3,45.0,115.98,0.0,0.0,0.0,0.0,0.0,0.0,0.0,76.3,45.0,115.98
123,7.710371255874634,2100.0,27.256250381469727,0.75390625,1.16015625,-6.604261875152588,76.3,45.0,115.98,0.0,0.0,0.0,0.0,0.0,0.0,0.0,76.3,45.0,115.98
124,7.7730817794799805,2100.0,27.256250381469727,0.75390625,1.16015625,-6.847512722015381,76.3,45.0,115.98,0.0,0.0,0.0,0.0,0.0,0.0,0.0,76.3,45.0,115.98
125,7.835671663284302,2100.0,27.256250381469727,0.75390625,1.16015625,-6.7623748779296875,76.3,45.0,115.98,0.0,0.0,0.0,0.0,0.0,0.0,0.0,76.3,45.0,115.98
126,7.898701906204224,2100.0,27.256250381469727,0.75390625,1.16015625,-7.054275989532471,76.3,45.0,115.98,0.0,0.0,0.0,0.0,0.0,0.0,0.0,76.3,45.0,115.98
127,7.961761236190796,2100.0,27.256250381469727,0.75390625,1.16015625,-6.993463039398193,76.3,45.0,115.98,0.0,0.0,0.0,0.0,0.0,0.0,0.0,76.3,45.0,115.98
128,8.023858308792114,2100.0,27.256250381469727,0.75390625,1.16015625,-7.21238899230957,76.3,45.0,115.98,0.0,0.0,0.0,0.0,0.0,0.0,0.0,76.3,45.0,115.98
129,8.088111877441406,2100.0,27.256250381469727,0.75390625,1.16015625,-7.394827365875244,76.3,45.0,115.98,0.0,0.0,0.0,0.0,0.0,0.0,0.0,76.3,45.0,115.98
130,8.149906635284424,2100.0,27.256250381469727,0.75390625,1.16015625,-7.32185173034668,76.3,45.0,115.98,0.0,0.0,0.0,0.0,0.0,0.0,0.0,76.3,45.0,115.98
