,times,frequency,temperature,mass_flow,volume_flow,mouth_pressure,offset,theta,radius,alpha,z,x,alpha_ref,z_ref,x_ref,flow_ref,offset_ref,theta_ref,radius_ref
0,0.0,205.02317805147942,28.756250381469727,0.869140625,1.34375,0.0,-2.48,46.98,6.0,1.98,77.2,86.49,1.98,77.2,86.49,1.98,-2.48,46.98,6.0
1,0.05370831489562988,184.54371166002647,28.756250381469727,9.28515625,14.203125,0.0,-2.48,46.98,6.0,1.98,77.2,86.49,2.02,77.2,86.49,2.02,-2.52,47.02,6.01
2,0.10627031326293945,184.54371166002647,28.756250381469727,21.693359375,32.587890625,0.0,-2.52,47.02,6.01,2.02,77.2,86.49,2.02,77.2,86.49,2.02,-2.52,47.02,6.01
3,0.16010832786560059,312.3686495909577,28.756250381469727,27.666015625,41.759765625,0.0,-2.5,46.98,6.0,1.98,77.22,86.49,1.94,77.23,86.46,1.94,-2.48,46.94,6.03
4,0.21407723426818848,1258.2915653121916,28.756250381469727,29.451171875,44.537109375,0.0,-2.5,46.91,6.09,1.91,77.3,86.4,1.91,77.3,86.38,1.91,-2.51,46.91,6.11
5,0.266864538192749,1252.5402505910733,28.75312614440918,29.646484375,44.919921875,0.0,-2.5,46.84,6.16,1.84,77.37,86.32,1.84,77.38,86.3,1.84,-2.51,46.84,6.19
6,0.32150959968566895,1252.5402505910733,28.75312614440918,29.822265625,45.1796875,0.0,-2.49,46.76,6.22,1.76,77.43,86.25,1.76,77.45,86.22,1.76,-2.51,46.76,6.25
7,0.3735675811767578,1179.9543311992795,28.75,29.912109375,45.357421875,0.0,-2.48,46.69,6.29,1.69,77.5,86.18,1.69,77.51,86.16,1.69,-2.5,46.69,6.31
8,0.4265780448913574,1121.5229736465772,28.743749618530273,29.955078125,45.423828125,0.0,-2.5,46.62,6.37,1.62,77.58,86.1,1.62,77.59,86.09,1.62,-2.5,46.62,6.38
9,0.4803340435028076,1121.5229736465772,28.740625381469727,29.974609375,45.451171875,0.0,-2.52,46.58,6.45,1.58,77.64,86.02,1.55,77.66,86.02,1.55,-2.49,46.55,6.44
10,0.535137414932251,1133.0422411530042,28.734375,29.998046875,45.482421875,0.0,-2.5,46.51,6.49,1.51,77.7,85.97,1.51,77.71,85.96,1.51,-2.51,46.51,6.5
11,0.5891761779785156,1121.143199122668,28.728124618530273,29.99609375,45.48046875,0.0,-2.55,46.55,6.51,1.55,77.71,85.96,1.58,77.61,85.99,1.58,-2.49,46.58,6.46
12,0.6435809135437012,1121.143199122668,28.72187614440918,29.80078125,45.1875,0.0,-2.18,46.73,6.23,1.73,77.15,86.12,1.84,77.32,86.09,1.84,-2.46,46.84,6.36
13,0.6976463794708252,1138.2199061519473,28.712499618530273,29.2890625,44.4453125,0.0,-2.32,47.27,6.15,2.27,76.73,86.26,2.45,76.55,86.34,2.45,-2.33,47.45,6.08
14,0.7529470920562744,264.7883389262911,28.70625114440918,29.134765625,44.22265625,0.0,-1.97,47.88,5.75,2.88,75.74,86.58,3.17,75.72,86.64,3.17,-2.24,48.17,5.78
15,0.8055920600891113,264.7883389262911,28.693750381469727,29.052734375,44.107421875,0.0,-1.87,48.6,5.39,3.6,74.91,86.94,3.85,74.9,86.95,3.85,-2.12,48.85,5.47
16,0.8587987422943115,1113.7232372224432,28.6875,29.037109375,44.087890625,0.0,-1.96,49.36,5.21,4.36,74.23,87.19,4.43,74.24,87.22,4.43,-2.04,49.43,5.22
17,0.9119656085968018,1113.7232372224432,28.678125381469727,29.021484375,44.06640625,0.0,-1.94,49.72,5.04,4.72,73.85,87.38,4.86,73.82,87.4,4.86,-2.05,49.86,5.07
18,0.9651763439178467,1053.2036400707,28.671875,29.017578125,44.06640625,0.0,-2.0,49.97,5.01,4.97,73.66,87.46,5.0,73.62,87.47,5.0,-2.0,50.0,4.99
19,1.0192527770996094,1020.9689528060652,28.65625,29.01953125,44.068359375,0.0,-2.01,50.0,5.0,5.0,73.63,87.47,4.9,73.7,87.42,4.9,-1.97,49.9,5.02
20,1.0727813243865967,1020.9689528060652,28.649999618530273,28.369140625,43.09765625,0.0,-2.14,49.75,5.18,4.75,74.01,87.31,4.68,73.92,87.29,4.68,-1.98,49.68,5.14
21,1.1253254413604736,1038.138962055385,28.637500762939453,27.06640625,41.1953125,0.0,-2.0,49.25,5.38,4.25,74.37,87.02,4.1,74.46,86.95,4.1,-1.94,49.1,5.42
22,1.1808857917785645,1016.5108733995074,28.62812614440918,26.814453125,40.828125,0.0,-1.96,48.64,5.64,3.64,74.95,86.71,3.38,75.12,86.65,3.38,-1.87,48.38,5.66
23,1.2357847690582275,1016.5108733995074,28.618749618530273,26.673828125,40.623046875,0.0,-1.88,47.92,5.97,2.92,75.61,86.32,2.63,75.63,86.3,2.63,-1.6,47.63,5.91
24,1.288696050643921,321.5585959666008,28.606250762939453,26.58984375,40.498046875,0.0,-1.72,47.09,6.21,2.09,76.31,86.01,1.91,76.34,85.94,1.91,-1.56,46.91,6.24
25,1.3448123931884766,321.5585959666008,28.59375,26.560546875,40.45703125,0.0,-1.53,46.51,6.42,1.51,76.72,85.74,1.48,76.78,85.74,1.48,-1.55,46.48,6.42
26,1.3998095989227295,939.804841630239,28.58125114440918,26.546875,40.431640625,0.0,-1.47,46.33,6.45,1.33,76.85,85.7,1.3,76.92,85.66,1.3,-1.5,46.3,6.49
27,1.4546434879302979,939.804841630239,28.568750381469727,26.525390625,40.3984375,0.0,-1.5,46.3,6.49,1.3,76.92,85.66,1.22,76.96,85.66,1.22,-1.46,46.22,6.49
28,1.5068988800048828,880.3796507431822,28.559375762939453,24.427734375,37.244140625,0.0,-1.5,46.04,6.48,1.04,77.18,85.68,0.86,77.14,85.7,0.86,-1.26,45.86,6.42
29,1.5602591037750244,857.8442159432234,28.543750762939453,22.072265625,33.763671875,0.0,-1.16,45.61,6.38,0.61,77.31,85.72,0.43,77.36,85.74,0.43,-1.02,45.43,6.34
30,1.615551233291626,858.6385614164245,28.53437614440918,21.54296875,32.984375,0.0,-0.91,45.14,6.3,0.14,77.55,85.77,0.0,77.61,85.78,0.0,-0.81,45.0,6.27
31,1.6696863174438477,858.6385614164245,28.524999618530273,21.275390625,32.587890625,0.0,-0.7,44.71,6.22,-0.29,77.81,85.82,-0.36,77.84,85.85,-0.36,-0.66,44.64,6.19
32,1.7232029438018799,165.99354525426295,28.512500762939453,21.10546875,32.3359375,0.0,-0.38,44.21,6.14,-0.79,78.02,85.89,-0.83,78.03,85.9,-0.83,-0.35,44.17,6.12
33,1.7776062488555908,194.3579128626032,28.5,21.03515625,32.23046875,0.0,-0.19,43.81,6.06,-1.19,78.25,85.96,-1.3,78.26,85.98,-1.3,-0.08,43.7,6.03
34,1.834686517715454,286.7421114135505,28.490625381469727,21.015625,32.201171875,0.0,-0.01,43.52,6.01,-1.48,78.37,86.01,-1.51,78.39,86.02,-1.51,0.01,43.49,6.0
35,1.8904931545257568,286.7421114135505,28.475000381469727,21.009765625,32.19140625,0.0,0.01,43.49,6.0,-1.51,78.39,86.02,-1.48,78.42,85.99,-1.48,-0.05,43.52,6.03
36,1.9450063705444336,136.89145047489455,28.465625762939453,20.41015625,31.28125,0.0,-0.12,43.56,6.16,-1.44,78.45,85.86,-1.4,78.47,85.85,-1.4,-0.18,43.6,6.18
37,1.9982075691223145,324.4156348230388,28.45625114440918,19.486328125,29.890625,0.0,-0.28,43.63,6.27,-1.37,78.54,85.76,-1.33,78.54,85.72,-1.33,-0.32,43.67,6.31
38,2.0520646572113037,324.4156348230388,28.446874618530273,19.236328125,29.515625,0.0,-0.41,43.7,6.42,-1.3,78.59,85.62,-1.26,78.61,85.58,-1.26,-0.46,43.74,6.46
39,2.1059155464172363,320.19534618407965,28.4375,19.08984375,29.296875,0.0,-0.55,43.78,6.55,-1.22,78.66,85.5,-1.22,78.68,85.45,-1.22,-0.57,43.78,6.6
40,2.1594443321228027,590.4739170740661,28.42500114440918,19.037109375,29.21484375,0.0,-0.69,43.85,6.7,-1.15,78.72,85.36,-1.12,78.74,85.34,-1.12,-0.75,43.88,6.72
41,2.215142011642456,590.4739170740661,28.415624618530273,19.0078125,29.169921875,0.0,-0.83,43.92,6.85,-1.08,78.79,85.23,-1.04,78.82,85.22,-1.04,-0.9,43.96,6.87
42,2.2717909812927246,283.28429769835685,28.40625,19.00390625,29.1640625,0.0,-0.98,43.99,6.99,-1.01,78.86,85.1,-1.01,78.87,85.1,-1.01,-0.99,43.99,6.99
43,2.325352907180786,559.0210840266124,28.396875381469727,19.0,29.158203125,0.0,-0.99,43.99,6.99,-1.01,78.87,85.1,-0.97,78.82,85.11,-0.97,-0.97,44.03,6.98
44,2.3778233528137207,559.0210840266124,28.387500762939453,18.8828125,28.978515625,0.0,-0.87,44.17,6.92,-0.83,78.56,85.15,-0.79,78.56,85.16,-0.79,-0.91,44.21,6.92
45,2.431835412979126,281.05494057804395,28.37812614440918,18.646484375,28.62109375,0.0,-0.77,44.39,6.84,-0.61,78.22,85.22,-0.5,78.22,85.22,-0.5,-0.88,44.5,6.84
46,2.4873666763305664,186.64346343328717,28.371875762939453,18.548828125,28.494140625,0.0,-0.77,44.64,6.79,-0.36,77.95,85.26,-0.32,77.94,85.28,-0.32,-0.79,44.68,6.77
47,2.5425455570220947,186.64346343328717,28.36250114440918,18.515625,28.419921875,0.0,-0.62,44.86,6.69,-0.14,77.58,85.34,-0.07,77.61,85.34,-0.07,-0.73,44.93,6.7
48,2.5970635414123535,540.1207498782003,28.356250762939453,18.509765625,28.412109375,0.0,-0.65,45.07,6.63,0.07,77.38,85.4,0.18,77.29,85.42,0.18,-0.68,45.18,6.62
49,2.6527130603790283,263.220216789661,28.34687614440918,18.50390625,28.40234375,0.0,-0.57,45.32,6.56,0.32,77.02,85.46,0.4,76.95,85.49,0.4,-0.57,45.4,6.53
50,2.7074015140533447,498.22136082561775,28.337499618530273,18.498046875,28.392578125,0.0,-0.45,45.47,6.5,0.47,76.75,85.51,0.5,76.77,85.52,0.5,-0.51,45.5,6.5
51,2.764674186706543,498.22136082561775,28.328125,18.50390625,28.40234375,0.0,-0.51,45.5,6.53,0.5,76.77,85.49,0.47,76.77,85.5,0.47,-0.47,45.47,6.52
52,2.820723533630371,525.8878236931158,28.321874618530273,18.228515625,27.98046875,0.0,-0.4,45.4,6.62,0.4,76.78,85.39,0.36,76.78,85.37,0.36,-0.36,45.36,6.64
53,2.873650550842285,525.8878236931158,28.3125,18.08203125,27.759765625,0.0,-0.33,45.32,6.72,0.32,76.78,85.29,0.29,76.78,85.26,0.29,-0.29,45.29,6.74
54,2.9266488552093506,517.2221617134717,28.306249618530273,18.03125,27.68359375,0.0,-0.22,45.22,6.82,0.22,76.79,85.18,0.18,76.79,85.18,0.18,-0.19,45.18,6.83
55,2.981053590774536,496.4562468489087,28.30000114440918,18.0078125,27.650390625,0.0,-0.11,45.11,6.91,0.11,76.79,85.09,0.07,76.8,85.06,0.07,-0.08,45.07,6.94
56,3.034736394882202,479.0033853781494,28.293750762939453,18.0078125,27.650390625,0.0,-0.0,45.0,7.01,0.0,76.8,84.99,-0.04,76.81,84.97,-0.04,0.03,44.96,7.03
57,3.087385654449463,479.0033853781494,28.287500381469727,17.998046875,27.6328125,0.0,0.11,44.89,7.11,-0.11,76.81,84.89,-0.11,76.82,84.89,-0.11,0.1,44.89,7.11
58,3.141773223876953,454.66736247928554,28.278125762939453,17.99609375,27.62890625,0.0,0.18,44.82,7.2,-0.18,76.82,84.8,-0.22,76.82,84.8,-0.22,0.22,44.78,7.2
59,3.195927858352661,440.5908362870468,28.271875381469727,17.994140625,27.625,0.0,0.22,44.78,7.2,-0.22,76.82,84.8,-0.22,76.85,84.78,-0.22,0.19,44.78,7.22
60,3.2509546279907227,440.5908362870468,28.26875114440918,17.470703125,26.82421875,0.0,0.2,44.71,7.33,-0.29,76.91,84.67,-0.32,76.92,84.66,-0.32,0.23,44.68,7.34
61,3.3029396533966064,425.2315389698282,28.259374618530273,16.751953125,25.740234375,0.0,0.24,44.6,7.44,-0.4,76.99,84.57,-0.47,77.0,84.54,-0.47,0.31,44.53,7.47
62,3.357867479324341,425.2315389698282,28.25312614440918,16.611328125,25.52734375,0.0,0.34,44.46,7.56,-0.54,77.05,84.45,-0.58,77.08,84.44,-0.58,0.35,44.42,7.57
63,3.4107067584991455,399.7305436960266,28.25,16.5546875,25.439453125,0.0,0.33,44.39,7.66,-0.61,77.14,84.35,-0.68,77.17,84.32,-0.68,0.38,44.32,7.69
64,3.469367504119873,399.7305436960266,28.240625381469727,16.517578125,25.3828125,0.0,0.41,44.24,7.79,-0.76,77.22,84.22,-0.79,77.24,84.21,-0.79,0.42,44.21,7.8
65,3.523771047592163,395.3613335889674,28.23750114440918,16.50390625,25.36328125,0.0,0.47,44.1,7.91,-0.9,77.31,84.1,-0.94,77.34,84.1,-0.94,0.49,44.06,7.92
66,3.5762529373168945,395.3613335889674,28.231250762939453,16.5,25.357421875,0.0,0.49,44.03,7.98,-0.97,77.38,84.03,-1.01,77.39,84.02,-1.01,0.51,43.99,8.0
67,3.6302437782287598,196.58330969812752,28.228124618530273,16.4921875,25.345703125,0.0,0.51,43.99,8.0,-1.01,77.39,84.02,-1.01,77.39,84.02,-1.01,0.51,43.99,8.0
68,3.6823573112487793,325.934965662412,28.22187614440918,16.49609375,25.349609375,0.0,0.51,43.99,8.0,-1.01,77.39,84.02,-1.01,77.39,84.02,-1.01,0.51,43.99,8.0
69,3.735581636428833,325.934965662412,28.215625762939453,16.49609375,25.3515625,0.0,0.51,43.99,8.0,-1.01,77.39,84.02,-1.01,77.39,84.02,-1.01,0.51,43.99,8.0
70,3.7875444889068604,191.19953571392756,28.212499618530273,16.498046875,25.353515625,0.0,0.51,43.99,8.0,-1.01,77.39,84.02,-1.01,77.39,84.02,-1.01,0.51,43.99,8.0
71,3.8400120735168457,220.52782758154896,28.20625114440918,16.498046875,25.3515625,0.0,0.51,43.99,8.0,-1.01,77.39,84.02,-1.01,77.39,84.02,-1.01,0.51,43.99,8.0
72,3.895102024078369,191.63973344922454,28.200000762939453,16.5,25.3515625,0.0,0.51,43.99,8.0,-1.01,77.39,84.02,-1.01,77.39,84.02,-1.01,0.51,43.99,8.0
73,3.9475650787353516,191.63973344922454,28.196874618530273,16.498046875,25.3515625,0.0,0.51,43.99,8.0,-1.01,77.39,84.02,-1.01,77.42,84.07,-1.01,0.49,43.99,7.94
74,4.001324415206909,102.95745795602852,28.193750381469727,17.677734375,27.15234375,0.0,0.5,43.96,7.71,-1.04,77.44,84.3,-1.08,77.53,84.29,-1.08,0.45,43.92,7.73
75,4.0553505420684814,164.41337468617087,28.1875,19.552734375,29.970703125,0.0,0.37,43.88,7.49,-1.12,77.64,84.52,-1.15,77.68,84.58,-1.15,0.37,43.85,7.43
76,4.107561111450195,108.82141993030481,28.184375762939453,20.43359375,31.294921875,0.0,0.31,43.81,7.22,-1.19,77.78,84.79,-1.22,77.8,84.88,-1.22,0.32,43.78,7.13
77,4.15995192527771,108.82141993030481,28.178125381469727,20.73828125,31.748046875,0.0,0.21,43.74,6.9,-1.26,77.94,85.11,-1.3,77.96,85.18,-1.3,0.23,43.7,6.84
78,4.21331000328064,164.7906396864658,28.17500114440918,20.875,31.955078125,0.0,0.14,43.67,6.61,-1.33,78.09,85.4,-1.37,78.11,85.42,-1.37,0.15,43.63,6.59
79,4.266441583633423,109.78497679763086,28.168750762939453,20.94921875,32.06640625,0.0,0.07,43.6,6.32,-1.4,78.22,85.7,-1.44,78.25,85.74,-1.44,0.08,43.56,6.27
80,4.318810939788818,329.6299664907555,28.165624618530273,20.97265625,32.103515625,0.0,0.0,43.52,6.06,-1.48,78.36,85.96,-1.48,78.38,86.02,-1.48,-0.01,43.52,6.0
81,4.371662616729736,329.6299664907555,28.162500381469727,20.9921875,32.1328125,0.0,0.01,43.49,6.0,-1.51,78.39,86.02,-1.51,78.39,86.02,-1.51,0.01,43.49,6.0
82,4.426477670669556,164.92776372827385,28.15625,21.001953125,32.14453125,0.0,0.01,43.49,6.0,-1.51,78.39,86.02,-1.51,78.39,86.02,-1.51,0.01,43.49,6.0
83,4.479853868484497,330.1924604242608,28.149999618530273,21.001953125,32.14453125,0.0,0.01,43.49,6.0,-1.51,78.39,86.02,-1.51,78.38,86.02,-1.51,0.02,43.49,6.0
84,4.5339250564575195,638.0906284895121,28.146875381469727,20.7734375,31.794921875,0.0,0.01,43.63,6.05,-1.37,78.24,85.97,-1.3,78.27,85.98,-1.3,-0.1,43.7,6.04
85,4.586742401123047,638.0906284895121,28.14375114440918,19.365234375,29.671875,0.0,-0.06,43.88,6.11,-1.12,78.04,85.9,-1.04,78.03,85.89,-1.04,-0.12,43.96,6.13
86,4.641461372375488,623.9966265238216,28.137500762939453,18.857421875,28.9140625,0.0,-0.12,44.17,6.17,-0.83,77.8,85.84,-0.76,77.78,85.81,-0.76,-0.17,44.24,6.2
87,4.693663835525513,621.6978585791009,28.134374618530273,18.705078125,28.68359375,0.0,-0.17,44.46,6.25,-0.54,77.54,85.76,-0.43,77.54,85.74,-0.43,-0.28,44.57,6.27
88,4.746410131454468,621.6978585791009,28.12812614440918,18.595703125,28.521484375,0.0,-0.19,44.71,6.32,-0.29,77.3,85.68,-0.11,77.29,85.67,-0.11,-0.37,44.89,6.34
89,4.803344964981079,594.2376598389304,28.121875762939453,18.537109375,28.431640625,0.0,-0.35,45.11,6.41,0.11,77.03,85.6,0.22,77.04,85.6,0.22,-0.47,45.22,6.42
90,4.856419324874878,584.6259195043527,28.118749618530273,18.51953125,28.404296875,0.0,-0.39,45.36,6.47,0.36,76.81,85.54,0.43,76.81,85.54,0.43,-0.47,45.43,6.48
91,4.910093069076538,584.6259195043527,28.115625381469727,18.51953125,28.404296875,0.0,-0.48,45.47,6.5,0.47,76.78,85.52,0.5,76.77,85.52,0.5,-0.51,45.5,6.5
92,4.963489532470703,563.8520911573755,28.109375,18.5625,28.46875,0.0,-0.48,45.4,6.47,0.4,76.86,85.54,0.32,76.9,85.55,0.32,-0.45,45.32,6.46
93,5.018255233764648,528.8154263687533,28.106250762939453,19.880859375,30.4609375,0.0,-0.47,45.18,6.41,0.18,77.08,85.61,0.0,77.14,85.62,0.0,-0.34,45.0,6.39
94,5.071505308151245,531.0118175730456,28.100000381469727,20.58984375,31.5234375,0.0,-0.37,44.86,6.34,-0.14,77.33,85.67,-0.29,77.4,85.7,-0.29,-0.29,44.71,6.31
95,5.124642372131348,531.0118175730456,28.100000381469727,20.78125,31.80859375,0.0,-0.28,44.5,6.26,-0.5,77.62,85.75,-0.54,77.62,85.78,-0.54,-0.24,44.46,6.23
96,5.179957866668701,532.704413025419,28.09375,20.904296875,31.9921875,0.0,-0.25,44.21,6.17,-0.79,77.89,85.84,-0.86,77.88,85.86,-0.86,-0.16,44.14,6.16
97,5.232574939727783,187.6937548175498,28.087499618530273,20.95703125,32.072265625,0.0,-0.16,43.92,6.1,-1.08,78.1,85.91,-1.15,78.14,85.94,-1.15,-0.12,43.85,6.08
98,5.285979747772217,187.6937548175498,28.084375381469727,20.96484375,32.083984375,0.0,-0.03,43.6,6.03,-1.4,78.32,85.99,-1.44,78.35,86.0,-1.44,-0.03,43.56,6.02
99,5.338559865951538,318.788796803764,28.08125114440918,20.99609375,32.12890625,0.0,0.02,43.49,6.0,-1.51,78.38,86.02,-1.51,78.39,86.02,-1.51,0.01,43.49,6.0
100,5.391897916793823,324.7682499759099,28.075000762939453,20.994140625,32.125,0.0,-0.02,43.56,6.02,-1.44,78.34,86.0,-1.37,78.33,85.99,-1.37,-0.08,43.63,6.03
101,5.44707989692688,324.7682499759099,28.071874618530273,19.8828125,30.44140625,0.0,-0.03,43.81,6.07,-1.19,78.09,85.94,-1.04,78.03,85.91,-1.04,-0.13,43.96,6.1
102,5.501642465591431,327.5479852562106,28.06562614440918,19.021484375,29.330078125,0.0,-0.05,44.1,6.15,-0.9,77.81,85.86,-0.76,77.82,85.83,-0.76,-0.21,44.24,6.18
103,5.556939363479614,327.5479852562106,28.0625,18.748046875,28.740234375,0.0,-0.11,44.39,6.23,-0.61,77.56,85.78,-0.43,77.56,85.74,-0.43,-0.3,44.57,6.27
104,5.609240531921387,314.83929365169837,28.059375762939453,18.615234375,28.54296875,0.0,-0.19,44.68,6.3,-0.32,77.34,85.7,-0.22,77.3,85.69,-0.22,-0.27,44.78,6.32
105,5.66375207901001,590.5216952973682,28.056249618530273,18.560546875,28.458984375,0.0,-0.31,45.0,6.38,0.0,77.11,85.62,0.14,77.06,85.61,0.14,-0.42,45.14,6.4
106,5.718840837478638,590.5216952973682,28.05000114440918,18.521484375,28.40234375,0.0,-0.38,45.32,6.47,0.32,76.83,85.54,0.43,76.82,85.54,0.43,-0.48,45.43,6.48
107,5.773316860198975,292.66460891225285,28.046875,18.51953125,28.396484375,0.0,-0.48,45.47,6.5,0.47,76.78,85.52,0.5,76.77,85.52,0.5,-0.51,45.5,6.5
108,5.825482606887817,563.6953642844109,28.043750762939453,18.513671875,28.388671875,0.0,-0.52,45.43,6.48,0.43,76.86,85.54,0.4,76.83,85.54,0.4,-0.45,45.4,6.47
109,5.877818822860718,563.6953642844109,28.040624618530273,19.376953125,29.697265625,0.0,-0.46,45.18,6.41,0.18,77.06,85.61,0.11,77.07,85.62,0.11,-0.39,45.11,6.4
110,5.931708812713623,530.2142396618124,28.03437614440918,20.369140625,31.166015625,0.0,-0.39,44.89,6.34,-0.11,77.3,85.67,-0.22,77.33,85.69,-0.22,-0.3,44.78,6.32
111,5.987791061401367,530.2142396618124,28.03125,20.71875,31.70703125,0.0,-0.36,44.6,6.25,-0.4,77.58,85.76,-0.5,77.58,85.76,-0.5,-0.25,44.5,6.25
112,6.039395093917847,543.1294339556296,28.028125762939453,20.88671875,31.955078125,0.0,-0.26,44.28,6.19,-0.72,77.82,85.82,-0.83,77.84,85.84,-0.83,-0.16,44.17,6.17
113,6.091932058334351,283.4499143859138,28.024999618530273,20.94921875,32.05078125,0.0,-0.15,43.99,6.13,-1.01,78.02,85.89,-1.08,78.09,85.9,-1.08,-0.14,43.92,6.11
114,6.1474127769470215,283.4499143859138,28.021875381469727,20.96484375,32.07421875,0.0,-0.07,43.67,6.04,-1.33,78.28,85.98,-1.4,78.32,85.98,-1.4,-0.03,43.6,6.04
115,6.202251195907593,590.3828139083028,28.015625,20.990234375,32.11328125,0.0,0.05,43.49,6.0,-1.51,78.35,86.02,-1.51,78.39,86.02,-1.51,0.01,43.49,6.0
116,6.257756233215332,613.5232224053492,28.012500762939453,20.984375,32.1015625,0.0,-0.02,43.56,6.06,-1.44,78.34,85.96,-1.44,78.31,86.0,-1.44,0.01,43.56,6.02
117,6.314610958099365,613.5232224053492,28.009374618530273,19.8125,30.330078125,0.0,0.04,43.78,6.09,-1.22,78.06,85.92,-1.12,78.11,85.93,-1.12,-0.13,43.88,6.09
118,6.367232799530029,629.3360641820855,28.00312614440918,18.97265625,29.072265625,0.0,-0.15,44.14,6.15,-0.86,77.86,85.86,-0.79,77.81,85.83,-0.79,-0.17,44.21,6.18
119,6.419857501983643,310.6805155000264,28.0,18.728515625,28.705078125,0.0,-0.23,44.46,6.23,-0.54,77.61,85.78,-0.5,77.57,85.75,-0.5,-0.23,44.5,6.26
120,6.475983619689941,619.5124382621871,27.996875762939453,18.595703125,28.5078125,0.0,-0.36,44.78,6.32,-0.22,77.39,85.7,-0.18,77.32,85.69,-0.18,-0.33,44.82,6.32
121,6.528934001922607,619.5124382621871,27.993749618530273,18.55078125,28.44140625,0.0,-0.31,45.0,6.38,0.0,77.11,85.62,0.14,77.12,85.62,0.14,-0.47,45.14,6.4
122,6.58458685874939,594.6917843886226,27.990625381469727,18.521484375,28.396484375,0.0,-0.41,45.32,6.45,0.32,76.86,85.56,0.4,76.86,85.54,0.4,-0.49,45.4,6.47
123,6.639009475708008,594.6917843886226,27.98750114440918,18.51953125,28.392578125,0.0,-0.5,45.47,6.5,0.47,76.8,85.52,0.5,76.77,85.52,0.5,-0.51,45.5,6.5
124,6.692500114440918,291.399065041779,27.981250762939453,18.515625,28.38671875,0.0,-0.52,45.43,6.49,0.43,76.86,85.53,0.4,76.85,85.54,0.4,-0.47,45.4,6.47
125,6.745042085647583,541.4518511741612,27.978124618530273,19.630859375,30.07421875,0.0,-0.5,45.18,6.41,0.18,77.1,85.61,0.11,77.1,85.61,0.11,-0.41,45.11,6.4
