,times,frequency,temperature,mass_flow,volume_flow,mouth_pressure,offset,theta,radius,alpha,z,x,alpha_ref,z_ref,x_ref,flow_ref
0,56.84246349334717,240.7718543930039,32.83124923706055,0.0,0.0,-0.0006756227230653167,139.0,45.0,156.54,0.0,0.0,0.0,0.0,0.0,0.0,0.0
1,56.927332639694214,240.7718543930039,32.83437728881836,0.0,0.0,-0.0006685666157864034,139.0,45.0,156.54,0.0,0.0,0.0,0.0,0.0,0.0,0.0
2,56.95030760765076,240.7718543930039,32.83437728881836,0.0,0.0,-0.0006932629621587694,139.0,45.0,156.54,0.0,0.0,0.0,0.0,0.0,0.0,0.0
3,56.986027002334595,240.7718543930039,32.83437728881836,0.0,0.0,-0.0006932629621587694,139.0,45.0,156.54,0.0,0.0,0.0,0.0,0.0,0.0,0.0
4,57.00682306289673,240.7718543930039,32.83437728881836,0.0,0.0,-0.0006738586816936731,139.0,45.0,156.54,0.0,0.0,0.0,0.0,0.0,0.0,0.0
5,57.012630462646484,240.7718543930039,32.83437728881836,0.0,0.0,-0.0006738586816936731,139.0,45.0,156.54,0.0,0.0,0.0,0.0,0.0,0.0,0.0
6,57.02366638183594,480.15875858675116,32.83437728881836,0.0,0.0,-0.0006738586816936731,139.0,45.0,156.54,0.0,0.0,0.0,0.0,0.0,0.0,0.0
7,57.03352236747742,480.15875858675116,32.83437728881836,0.0,0.0,-0.0006668025744147599,139.0,45.0,156.54,0.0,0.0,0.0,0.0,0.0,0.0,0.0
8,57.04716897010803,480.15875858675116,32.83437728881836,0.0,0.0,-0.0006668025744147599,139.0,45.0,156.54,0.0,0.0,0.0,0.0,0.0,0.0,0.0
9,57.06041216850281,480.15875858675116,32.83437728881836,0.0,0.0,-0.0006668025744147599,139.0,45.0,156.54,0.0,0.0,0.0,0.0,0.0,0.0,0.0
10,57.07918620109558,480.15875858675116,32.83437728881836,0.0,0.0,-0.0006615105085074902,139.0,45.0,156.54,0.0,0.0,0.0,0.0,0.0,0.0,0.0
11,57.09928274154663,480.15875858675116,32.83437728881836,0.0,0.0,-0.0006615105085074902,139.0,45.0,156.54,0.0,0.0,0.0,0.0,0.0,0.0,0.0
12,57.114927768707275,480.15875858675116,32.83437728881836,0.0,0.0,-0.0006668025744147599,139.0,45.0,156.54,0.0,0.0,0.0,0.0,0.0,0.0,0.0
13,57.12594938278198,480.15875858675116,32.83437728881836,0.0,0.0,-0.0006668025744147599,139.0,45.0,156.54,0.0,0.0,0.0,0.0,0.0,0.0,0.0
14,57.1386079788208,480.15875858675116,32.83437728881836,0.0,0.0,-0.0006668025744147599,139.0,45.0,156.54,0.0,0.0,0.0,0.0,0.0,0.0,0.0
15,57.15953540802002,480.15875858675116,32.83437728881836,0.0,0.0,-0.0006985550862737,139.0,45.0,156.54,0.0,0.0,0.0,0.0,0.0,0.0,0.0
16,57.17944645881653,480.15875858675116,32.83437728881836,0.0,0.0,-0.0006985550862737,139.0,45.0,156.54,0.0,0.0,0.0,0.0,0.0,0.0,0.0
17,57.18716740608215,480.15875858675116,32.83437728881836,0.0,0.0,-0.0006985550862737,139.0,45.0,156.54,0.0,0.0,0.0,0.0,0.0,0.0,0.0
18,57.20731854438782,480.15875858675116,32.83437728881836,0.0,0.0,-0.0006985550862737,139.0,45.0,156.54,0.0,0.0,0.0,0.0,0.0,0.0,0.0
19,57.22246193885803,480.15875858675116,32.83437728881836,0.0,0.0,-0.0006862068548798561,139.0,45.0,156.54,0.0,0.0,0.0,0.0,0.0,0.0,0.0
20,57.23364210128784,480.15875858675116,32.83437728881836,0.0,0.0,-0.0006862068548798561,139.0,45.0,156.54,0.0,0.0,0.0,0.0,0.0,0.0,0.0
21,57.25036549568176,480.15875858675116,32.83437728881836,0.0,0.0,-0.0006756227230653167,139.0,45.0,156.54,0.0,0.0,0.0,0.0,0.0,0.0,0.0
22,57.25778555870056,480.15875858675116,32.83437728881836,0.0,0.0,-0.0006756227230653167,139.0,45.0,156.54,0.0,0.0,0.0,0.0,0.0,0.0,0.0
23,57.26442813873291,480.15875858675116,32.83437728881836,0.0,0.0,-0.0006756227230653167,139.0,45.0,156.54,0.0,0.0,0.0,0.0,0.0,0.0,0.0
24,57.3113534450531,100.0,32.83437728881836,0.0,0.0,-0.0006756227230653167,139.0,45.0,156.54,0.0,0.0,0.0,0.0,0.0,0.0,0.0
25,57.3171010017395,100.0,32.83437728881836,0.0,0.0,-0.0007003191276453435,139.0,45.0,156.54,0.0,0.0,0.0,0.0,0.0,0.0,0.0
26,57.329652070999146,100.0,32.83437728881836,0.0,0.0,-0.0007003191276453435,139.0,45.0,156.54,0.0,0.0,0.0,0.0,0.0,0.0,0.0
27,57.34513545036316,100.0,32.83437728881836,0.0,0.0,-0.0007003191276453435,139.0,45.0,156.54,0.0,0.0,0.0,0.0,0.0,0.0,0.0
28,57.35163688659668,100.0,32.83437728881836,0.0,0.0,-0.0007056111935526133,139.0,45.0,156.54,0.0,0.0,0.0,0.0,0.0,0.0,0.0
29,57.36772179603577,100.0,32.83437728881836,0.0,0.0,-0.0007056111935526133,139.0,45.0,156.54,0.0,0.0,0.0,0.0,0.0,0.0,0.0
30,57.40488052368164,100.0,32.83437728881836,0.0,0.0,-0.000654454343020916,139.0,45.0,156.49,0.0,0.0,0.12,0.0,0.0,0.0,0.0
31,57.4199903011322,100.0,32.83437728881836,0.0,0.0,-0.00076735217589885,138.61,45.0,156.14,0.0,0.39,0.12,0.0,0.0,0.0,0.0
32,57.425097942352295,511.59524757202905,32.83437728881836,0.0,0.0,-0.00076735217589885,138.61,45.0,156.14,0.0,0.39,0.12,0.0,0.0,0.0,0.0
33,57.438915967941284,511.59524757202905,32.83437728881836,0.0,0.0,-0.0006668025744147599,138.61,45.0,156.14,0.0,0.39,0.12,0.0,0.0,0.0,0.0
34,57.44502854347229,511.59524757202905,32.83437728881836,0.0,0.0,-0.0006668025744147599,138.61,45.0,156.14,0.0,0.39,0.12,0.0,0.0,0.0,0.0
35,57.458524227142334,511.59524757202905,32.83437728881836,0.0,0.0,-0.0007003191276453435,138.61,45.0,156.14,0.0,0.39,0.12,0.0,0.0,0.0,0.0
36,57.46545696258545,511.59524757202905,32.83437728881836,0.0,0.0,-0.0007003191276453435,138.61,45.0,156.14,0.0,0.39,0.12,0.0,11.576,3.32,0.0
37,57.51181888580322,511.59524757202905,32.83437728881836,0.0,0.0,-0.0007091392180882394,137.17,45.0,154.64,0.0,1.83,0.6,0.0,11.576,3.32,0.0
38,57.52954387664795,511.59524757202905,32.83437728881836,0.0,0.0,-0.0006491622771136463,137.17,45.0,154.64,0.0,1.83,0.6,0.0,11.576,3.32,0.0
39,57.5327410697937,511.59524757202905,32.83437728881836,0.0,0.0,-0.0006491622771136463,137.17,45.0,154.64,0.0,1.83,0.6,0.0,11.576,3.32,0.0
40,57.5450394153595,193.99248126516454,32.83437728881836,0.0,0.0,-0.0006491622771136463,137.17,45.0,154.64,0.0,1.83,0.6,0.0,11.576,3.32,0.0
41,57.55177164077759,193.99248126516454,32.83437728881836,0.0,0.0,-0.0006632744916714728,137.17,45.0,154.64,0.0,1.83,0.6,0.0,11.576,3.32,0.0
42,57.59885358810425,193.99248126516454,32.83437728881836,0.0,0.0,-0.0007020831108093262,135.59,45.0,153.24,0.0,3.41,0.6,0.0,11.576,3.32,0.0
43,57.61376476287842,193.99248126516454,32.83437728881836,0.0,0.0,-0.0006650385330431163,135.59,45.0,153.05,0.0,3.41,1.02,0.0,11.576,3.32,0.0
44,57.62142825126648,193.99248126516454,32.83437728881836,0.0,0.0,-0.0007091392180882394,135.59,45.0,153.05,0.0,3.41,1.02,0.0,11.576,3.32,0.0
45,57.63226819038391,193.99248126516454,32.83437728881836,0.0,0.0,-0.0007091392180882394,135.59,45.0,153.05,0.0,3.41,1.02,0.0,11.576,3.32,0.0
46,57.641586780548096,193.99248126516454,32.83437728881836,0.0,0.0,-0.0006862068548798561,135.59,45.0,153.05,0.0,3.41,1.02,0.0,11.576,3.32,0.0
47,57.65889024734497,193.28818818336,32.83437728881836,0.0,0.0,-0.0006791507476009429,135.59,45.0,153.05,0.0,3.41,1.02,0.0,11.576,3.32,0.0
48,57.660154581069946,193.28818818336,32.83437728881836,0.0,0.0,-0.0006791507476009429,135.59,45.0,153.05,0.0,3.41,1.02,0.0,11.576,3.32,0.0
49,57.6746940612793,193.28818818336,32.83437728881836,0.0,0.0,-0.0007003191276453435,135.59,45.0,153.05,0.0,3.41,1.02,0.0,11.576,3.32,0.0
50,57.702110052108765,193.28818818336,32.83437728881836,0.0,0.0,-0.0006791507476009429,134.0,45.0,151.43,0.0,5.0,1.47,0.0,11.576,3.32,0.0
51,57.70338416099548,193.28818818336,32.83437728881836,0.0,0.0,-0.0006791507476009429,134.0,45.0,151.43,0.0,5.0,1.47,0.0,11.576,3.32,0.0
52,57.71745228767395,193.28818818336,32.83437728881836,0.0,0.0,-0.000654454343020916,134.0,45.0,151.43,0.0,5.0,1.47,0.0,11.576,3.32,0.0
53,57.72251033782959,193.28818818336,32.83437728881836,0.0,0.0,-0.000654454343020916,134.0,45.0,151.43,0.0,5.0,1.47,0.0,11.576,3.32,0.0
54,57.73788237571716,193.28818818336,32.83437728881836,0.0,0.0,-0.0006914989789947867,134.0,45.0,151.43,0.0,5.0,1.47,0.0,11.576,3.32,0.0
55,57.745768547058105,193.28818818336,32.83437728881836,0.0,0.0,-0.0006879708962514997,134.0,45.0,151.43,0.0,5.0,1.47,0.0,11.576,3.32,0.0
56,57.75280976295471,192.70501961957586,32.83437728881836,0.0,0.0,-0.0006879708962514997,134.0,45.0,151.43,0.0,5.0,1.47,0.0,11.576,3.32,0.0
57,57.76589775085449,192.70501961957586,32.83437728881836,0.0,0.0,-0.0006879708962514997,134.0,45.0,151.43,0.0,5.0,1.47,0.0,11.576,3.32,0.0
58,57.79745292663574,192.70501961957586,32.83437728881836,0.0,0.0,-0.0006967910449020565,134.0,45.0,151.43,0.0,5.0,1.47,0.0,11.576,3.32,0.0
59,57.79858613014221,192.70501961957586,32.83437728881836,0.0,0.0,-0.0006967910449020565,132.56,45.0,149.96,0.0,6.44,1.88,0.0,11.576,3.32,0.0
60,57.81839156150818,192.70501961957586,32.83437728881836,0.0,0.0,-0.0006720946403220296,132.56,45.0,149.96,0.0,6.44,1.88,0.0,11.576,3.32,0.0
61,57.81943321228027,192.70501961957586,32.83437728881836,0.0,0.0,-0.0006720946403220296,132.56,45.0,149.96,0.0,6.44,1.88,0.0,11.576,3.32,0.0
62,57.83350682258606,192.70501961957586,32.83437728881836,0.0,0.0,-0.0006720946403220296,132.56,45.0,149.96,0.0,6.44,1.88,0.0,11.576,3.32,0.0
63,57.839635133743286,192.70501961957586,32.83437728881836,0.0,0.0,-0.0006862068548798561,132.56,45.0,149.96,0.0,6.44,1.88,0.0,11.576,3.32,0.0
64,57.85245108604431,200.30779101993744,32.83437728881836,0.0,0.0,-0.0006862068548798561,132.56,45.0,149.96,0.0,6.44,1.88,0.0,11.576,3.32,0.0
65,57.8605580329895,200.30779101993744,32.83437728881836,0.0,0.0,-0.0006809147889725864,132.56,45.0,149.96,0.0,6.44,1.88,0.0,11.576,3.32,0.0
66,57.8829128742218,200.30779101993744,32.83437728881836,0.0,0.0,-0.0006809147889725864,132.56,45.0,149.96,0.0,6.44,1.88,0.0,11.576,3.32,0.0
67,57.9096040725708,200.30779101993744,32.83437728881836,0.0,0.0,-0.0006844428717158735,131.03,45.0,148.41,0.0,7.97,2.32,0.0,11.576,3.32,0.0
68,57.919989824295044,200.30779101993744,32.83437728881836,0.0,0.0,-0.0007038471521809697,131.03,45.0,148.41,0.0,7.97,2.32,0.0,11.576,3.32,0.0
69,57.93425750732422,200.30779101993744,32.83437728881836,0.0,0.0,-0.0006791507476009429,131.03,45.0,148.41,0.0,7.97,2.32,0.0,11.576,3.32,0.0
70,57.940707206726074,192.20824690559175,32.83437728881836,0.0,0.0,-0.0006791507476009429,131.03,45.0,148.41,0.0,7.97,2.32,0.0,11.576,3.32,0.0
71,57.953410625457764,192.20824690559175,32.83437728881836,0.0,0.0,-0.0006914989789947867,131.03,45.0,148.41,0.0,7.97,2.32,0.0,11.576,3.32,0.0
72,57.96060919761658,192.20824690559175,32.83437728881836,0.0,0.0,-0.0006914989789947867,131.03,45.0,148.41,0.0,7.97,2.32,0.0,11.576,3.32,0.0
73,57.985180377960205,192.20824690559175,32.83437728881836,0.0,0.0,-0.0006791507476009429,131.03,45.0,148.41,0.0,7.97,2.32,0.0,11.576,3.32,0.0
74,58.005871295928955,192.20824690559175,32.83437728881836,0.0,0.0,-0.0007003191276453435,129.46,45.0,147.02,0.0,9.54,2.32,0.0,23.16,6.736,0.0
75,58.01833486557007,192.20824690559175,32.83437728881836,0.0,0.0,-0.0006932629621587694,129.46,45.0,146.77,0.0,9.54,2.85,0.0,23.16,6.736,0.0
76,58.02780485153198,192.20824690559175,32.83437728881836,0.0,0.0,-0.0006773867644369602,129.46,45.0,146.77,0.0,9.54,2.85,0.0,23.16,6.736,0.0
77,58.03913998603821,192.20824690559175,32.83437728881836,0.0,0.0,-0.0006773867644369602,129.46,45.0,146.77,0.0,9.54,2.85,0.0,23.16,6.736,0.0
78,58.04671382904053,192.20824690559175,32.83437728881836,0.0,0.0,-0.0006967910449020565,129.46,45.0,146.77,0.0,9.54,2.85,0.0,23.16,6.736,0.0
79,58.05701470375061,100.0,32.83437728881836,0.0,0.0,-0.0006967910449020565,129.46,45.0,146.77,0.0,9.54,2.85,0.0,23.16,6.736,0.0
80,58.0660035610199,100.0,32.83437728881836,0.0,0.0,-0.0006844428717158735,129.46,45.0,146.77,0.0,9.54,2.85,0.0,23.16,6.736,0.0
81,58.09796380996704,100.0,32.83437728881836,0.0,0.0,-0.0006738586816936731,129.46,45.0,146.77,0.0,9.54,2.85,0.0,23.16,6.736,0.0
82,58.10355854034424,100.0,32.83437728881836,0.0,0.0,-0.0006844428717158735,127.93,45.0,145.25,0.0,11.07,3.2,0.0,23.16,6.736,0.0
83,58.117817878723145,100.0,32.83437728881836,0.0,0.0,-0.0006932629621587694,127.93,45.0,145.25,0.0,11.07,3.2,0.0,23.16,6.736,0.0
84,58.128674268722534,100.0,32.83437728881836,0.0,0.0,-0.0006932629621587694,127.93,45.0,145.25,0.0,11.07,3.2,0.0,23.16,6.736,0.0
85,58.13474655151367,100.0,32.83437728881836,0.0,0.0,-0.0006509263184852898,127.93,45.0,145.25,0.0,11.07,3.2,0.0,23.16,6.736,0.0
86,58.15363621711731,100.0,32.83437728881836,0.0,0.0,-0.0007003191276453435,127.93,45.0,145.25,0.0,11.07,3.2,0.0,23.16,6.736,0.0
87,58.15538430213928,194.65675155813187,32.83437728881836,0.0,0.0,-0.0007003191276453435,127.93,45.0,145.25,0.0,11.07,3.2,0.0,23.16,6.736,0.0
88,58.17477083206177,194.65675155813187,32.83437728881836,0.0,0.0,-0.0006174097652547061,127.93,45.0,145.25,0.0,11.07,3.2,0.0,23.16,6.736,0.0
89,58.187357902526855,194.65675155813187,32.83437728881836,0.0,0.0,-0.0006174097652547061,127.93,45.0,145.25,0.0,11.07,3.2,0.0,23.16,6.736,0.0
90,58.206870794296265,194.65675155813187,32.83437728881836,0.0,0.0,-0.0006967910449020565,126.4,45.0,143.64,0.0,12.6,3.78,0.0,23.16,6.736,0.0
91,58.2241997718811,194.65675155813187,32.83437728881836,0.0,0.0,-0.0006791507476009429,126.4,45.0,143.64,0.0,12.6,3.78,0.0,23.16,6.736,0.0
92,58.23056626319885,194.65675155813187,32.83437728881836,0.0,0.0,-0.0006950270035304129,126.4,45.0,143.64,0.0,12.6,3.78,0.0,23.16,6.736,0.0
93,58.249160289764404,194.65675155813187,32.83437728881836,0.0,0.0,-0.0006773867644369602,126.4,45.0,143.64,0.0,12.6,3.78,0.0,23.16,6.736,0.0
94,58.25050377845764,194.65675155813187,32.83437728881836,0.0,0.0,-0.0006773867644369602,126.4,45.0,143.64,0.0,12.6,3.78,0.0,23.16,6.736,0.0
95,58.26335835456848,551.1768260558973,32.83437728881836,0.0,0.0,-0.0006773867644369602,126.4,45.0,143.64,0.0,12.6,3.78,0.0,23.16,6.736,0.0
96,58.300122022628784,551.1768260558973,32.83437728881836,0.0,0.0,-0.0006773867644369602,126.4,45.0,143.64,0.0,12.6,3.78,0.0,23.16,6.736,0.0
97,58.35517644882202,551.1768260558973,32.83437728881836,0.0,0.0,-0.0006985550862737,126.4,45.0,143.64,0.0,12.6,3.78,0.0,23.16,6.736,0.0
98,58.411288022994995,551.1768260558973,32.83437728881836,0.0,0.0,-0.0006985550862737,126.4,45.0,143.3,0.0,12.6,4.48,0.0,23.16,6.736,0.0
99,58.4632568359375,551.1768260558973,32.83437728881836,0.0,0.0,-0.0007179593667387962,124.19,45.0,141.36,0.0,14.81,4.48,0.0,23.16,6.736,0.0
100,58.50332045555115,551.1768260558973,32.83437728881836,0.0,0.0,-0.0006897349376231432,120.9,45.0,138.11,0.0,18.1,5.24,0.0,23.16,6.736,0.0
101,58.51818585395813,551.1768260558973,32.83437728881836,0.0,0.0,-0.0006756227230653167,119.75,45.0,136.86,0.0,19.25,5.74,0.0,34.744,10.264,0.0
102,58.545289516448975,551.1768260558973,32.83437728881836,0.0,0.0,-0.000654454343020916,119.75,45.0,136.86,0.0,19.25,5.74,0.0,34.744,10.264,0.0
103,58.5584237575531,551.1768260558973,32.83437728881836,0.0,0.0,-0.000654454343020916,119.75,45.0,136.86,0.0,19.25,5.74,0.0,34.744,10.264,0.0
104,58.56035900115967,551.1768260558973,32.83437728881836,0.0,0.0,-0.0006579824257642031,119.75,45.0,136.86,0.0,19.25,5.74,0.0,34.744,10.264,0.0
105,58.58466124534607,551.1768260558973,32.83437728881836,0.0,0.0,-0.0006668025744147599,119.75,45.0,136.86,0.0,19.25,5.74,0.0,34.744,10.264,0.0
106,58.629608154296875,551.1768260558973,32.83437728881836,0.0,0.0,-0.0006668025744147599,119.75,45.0,136.5,0.0,19.25,6.5,0.0,34.744,10.264,0.0
107,58.64483952522278,551.1768260558973,32.83437728881836,0.0,0.0,-0.0006844428717158735,117.21,45.0,134.27,0.0,21.79,6.5,0.0,34.744,10.264,0.0
108,58.65213656425476,551.1768260558973,32.83437728881836,0.0,0.0,-0.0006844428717158735,117.21,45.0,134.27,0.0,21.79,6.5,0.0,34.744,10.264,0.0
109,58.65488409996033,551.1768260558973,32.83437728881836,0.0,0.0,-0.0006844428717158735,117.21,45.0,134.27,0.0,21.79,6.5,0.0,34.744,10.264,0.0
110,58.66102695465088,278.0205503941929,32.83437728881836,0.0,0.0,-0.0006844428717158735,117.21,45.0,134.27,0.0,21.79,6.5,0.0,34.744,10.264,0.0
111,58.698373794555664,278.0205503941929,32.83437728881836,0.0,0.0,-0.0006509263184852898,117.21,45.0,134.27,0.0,21.79,6.5,0.0,34.744,10.264,0.0
112,58.742499351501465,278.0205503941929,32.83437728881836,0.0,0.0,-0.0007073752349242568,115.75,45.0,133.0,0.0,23.25,6.5,0.0,34.744,10.264,0.0
113,58.762372732162476,278.0205503941929,32.83437728881836,0.0,0.0,-0.0007073752349242568,115.75,45.0,132.66,0.0,23.25,7.2,0.0,34.744,10.264,0.0
114,58.78973937034607,278.0205503941929,32.83437728881836,0.0,0.0,-0.000710903259459883,115.75,45.0,132.66,0.0,23.25,7.2,0.0,34.744,10.264,0.0
115,58.8108925819397,278.0205503941929,32.83437728881836,0.0,0.0,-0.000710903259459883,113.56,45.0,130.75,0.0,25.44,7.2,0.0,34.744,10.264,0.0
116,58.828601598739624,278.0205503941929,32.83437728881836,0.0,0.0,-0.0006826788303442299,113.56,45.0,130.5,0.0,25.44,7.7,0.0,34.744,10.264,0.0
117,58.83279275894165,278.0205503941929,32.83437728881836,0.0,0.0,-0.0006826788303442299,113.56,45.0,130.5,0.0,25.44,7.7,0.0,34.744,10.264,0.0
118,58.85386371612549,278.0205503941929,32.83437728881836,0.0,0.0,-0.0006650385330431163,113.56,45.0,130.5,0.0,25.44,7.7,0.0,34.744,10.264,0.0
119,58.85796356201172,278.0205503941929,32.83437728881836,0.0,0.0,-0.0006650385330431163,113.56,45.0,130.5,0.0,25.44,7.7,0.0,34.744,10.264,0.0
120,58.86842608451843,278.0205503941929,32.83437728881836,0.0,0.0,-0.0006809147889725864,113.56,45.0,130.5,0.0,25.44,7.7,0.0,34.744,10.264,0.0
121,58.89077353477478,278.0205503941929,32.83437728881836,0.0,0.0,-0.0006809147889725864,113.56,45.0,130.5,0.0,25.44,7.7,0.0,34.744,10.264,0.0
122,58.92217564582825,278.0205503941929,32.83437728881836,0.0,0.0,-0.0006844428717158735,111.39,45.0,128.62,0.0,27.61,7.7,0.0,34.744,10.264,0.0
123,58.945834159851074,275.43339481472077,32.83437728881836,0.0,0.0,-0.0006756227230653167,111.39,45.0,128.3,0.0,27.61,8.34,0.0,34.744,10.264,0.0
124,59.005136251449585,275.43339481472077,32.83437728881836,0.0,0.0,-0.0006985550862737,111.39,45.0,128.3,0.0,27.61,8.34,0.0,34.744,10.264,0.0
125,59.034024477005005,275.43339481472077,32.83437728881836,0.0,0.0,-0.0006738586816936731,109.1,45.0,125.98,0.0,29.9,9.01,0.0,34.744,10.264,0.0
126,59.040958881378174,275.43339481472077,32.83437728881836,0.0,0.0,-0.0006738586816936731,109.1,45.0,125.98,0.0,29.9,9.01,0.0,46.328,13.92,0.0
127,59.063199281692505,275.43339481472077,32.83437728881836,0.0,0.0,-0.0006773867644369602,109.1,45.0,125.98,0.0,29.9,9.01,0.0,46.328,13.92,0.0
128,59.07565689086914,275.43339481472077,32.83437728881836,0.0,0.0,-0.0006773867644369602,109.1,45.0,125.98,0.0,29.9,9.01,0.0,46.328,13.92,0.0
129,59.096622705459595,275.43339481472077,32.83437728881836,0.0,0.0,-0.0006773867644369602,109.1,45.0,125.98,0.0,29.9,9.01,0.0,46.328,13.92,0.0
130,59.098360776901245,275.43339481472077,32.83437728881836,0.0,0.0,-0.0006773867644369602,109.1,45.0,125.62,0.0,29.9,9.73,0.0,46.328,13.92,0.0
131,59.11507058143616,275.43339481472077,32.83437728881836,0.0,0.0,-0.0006773867644369602,109.1,45.0,125.62,0.0,29.9,9.73,0.0,46.328,13.92,0.0
132,59.12305307388306,275.43339481472077,32.83437728881836,0.0,0.0,-0.0006826788303442299,109.1,45.0,125.62,0.0,29.9,9.73,0.0,46.328,13.92,0.0
133,59.146193504333496,275.43339481472077,32.83437728881836,0.0,0.0,-0.0006720946403220296,106.13,45.0,123.05,0.0,32.87,9.73,0.0,46.328,13.92,0.0
134,59.158238887786865,275.43339481472077,32.83437728881836,0.0,0.0,-0.0006720946403220296,106.13,45.0,123.05,0.0,32.87,9.73,0.0,46.328,13.92,0.0
135,59.16623282432556,275.43339481472077,32.83437728881836,0.0,0.0,-0.0006720946403220296,106.13,45.0,123.05,0.0,32.87,9.73,0.0,46.328,13.92,0.0
136,59.180869340896606,275.43339481472077,32.83437728881836,0.0,0.0,-0.0006879708962514997,106.13,45.0,123.05,0.0,32.87,9.73,0.0,46.328,13.92,0.0
137,59.20227670669556,275.43339481472077,32.83437728881836,0.0,0.0,-0.0006879708962514997,104.82,45.0,121.93,0.0,34.18,9.73,0.0,46.328,13.92,0.0
138,59.20386838912964,275.43339481472077,32.83437728881836,0.0,0.0,-0.0006879708962514997,104.82,45.0,121.93,0.0,34.18,9.73,0.0,46.328,13.92,0.0
139,59.21447396278381,275.43339481472077,32.83437728881836,0.0,0.0,-0.0006879708962514997,104.82,45.0,121.93,0.0,34.18,9.73,0.0,46.328,13.92,0.0
140,59.22012543678284,275.43339481472077,32.83437728881836,0.0,0.0,-0.0006791507476009429,104.82,45.0,121.51,0.0,34.18,10.55,0.0,46.328,13.92,0.0
141,59.228694677352905,275.43339481472077,32.83437728881836,0.0,0.0,-0.0006791507476009429,104.82,45.0,121.51,0.0,34.18,10.55,0.0,46.328,13.92,0.0
142,59.235451459884644,178.42561213846898,32.83437728881836,0.0,0.0,-0.0006809147889725864,104.82,45.0,121.51,0.0,34.18,10.55,0.0,46.328,13.92,0.0
