,times,frequency,temperature,mass_flow,volume_flow,mouth_pressure,offset,theta,radius,alpha,z,x,alpha_ref,z_ref,x_ref,flow_ref,offset_ref,theta_ref,radius_ref
0,0.0,10287.094922313194,0.0,0.0,0.0,0.0,75.3,45.0,118.11,0.0,0.0,0.0,1.98,74.69,85.17,1.98,-1.48,46.98,6.0
1,0.07324981689453125,14700.0,0.0,0.0,0.0,0.0,75.3,45.0,118.11,0.0,0.0,0.0,1.98,74.69,85.17,1.98,-1.48,46.98,6.0
2,0.13857555389404297,14700.0,0.0,0.0,0.0,0.0,75.3,45.0,118.11,0.0,0.0,0.0,1.98,74.69,85.17,1.98,-1.48,46.98,6.0
3,0.20197296142578125,267.11711970512624,0.0,0.0,0.0,0.0,75.3,45.0,118.11,0.0,0.0,0.0,2.02,74.69,85.17,2.02,-1.52,47.02,6.01
4,0.2637152671813965,224.08671489106942,0.0,0.0,0.0,0.0,75.3,45.0,118.11,0.0,0.0,0.0,1.94,74.73,85.14,1.94,-1.48,46.94,6.03
5,0.32392191886901855,282.2022676757383,0.0,0.0,0.0,0.0,75.3,45.0,118.11,0.0,0.0,0.0,1.87,74.8,85.06,1.87,-1.48,46.87,6.11
6,0.3833198547363281,253.74337931705307,0.0,0.0,0.0,0.0,75.3,45.0,118.11,0.0,0.0,0.0,1.8,74.89,84.98,1.8,-1.49,46.8,6.19
7,0.45131778717041016,210.75783658458673,0.0,0.0,0.0,0.0,75.3,45.0,118.11,0.0,0.0,0.0,1.73,74.96,84.9,1.73,-1.49,46.73,6.27
8,0.5131485462188721,197.5432093506605,0.0,0.0,0.0,0.0,75.3,45.0,118.11,0.0,0.0,0.0,1.66,75.06,84.81,1.66,-1.51,46.66,6.36
9,0.5717558860778809,211.1277843384022,0.0,0.0,0.0,0.0,75.3,45.0,118.11,0.0,0.0,0.0,1.55,75.13,84.73,1.55,-1.47,46.55,6.43
10,0.6316874027252197,222.82208177092608,0.0,0.0,0.0,0.0,75.3,45.0,118.11,0.0,0.0,0.0,1.51,75.2,84.66,1.51,-1.51,46.51,6.5
11,0.692070484161377,166.3937345257371,0.0,0.0,0.0,0.0,75.3,45.0,118.11,0.0,0.0,0.0,1.58,75.1,84.7,1.58,-1.48,46.58,6.46
12,0.7535398006439209,209.46138921023243,0.0,0.0,0.0,0.0,75.3,45.0,118.11,0.0,0.0,0.0,1.87,74.77,84.81,1.87,-1.46,46.87,6.35
13,0.8140311241149902,306.0168488229822,0.0,0.0,0.0,0.0,75.3,45.0,118.11,0.0,0.0,0.0,2.59,73.93,85.07,2.59,-1.37,47.59,6.08
14,0.8758580684661865,190.0661601503646,0.0,0.0,0.0,0.0,75.3,45.0,118.11,0.0,0.0,0.0,3.38,73.01,85.48,3.38,-1.27,48.38,5.69
15,0.9377398490905762,215.62623489361067,0.0,0.0,0.0,0.0,75.3,45.0,118.11,0.0,0.0,0.0,4.21,72.02,85.82,4.21,-1.13,49.21,5.37
16,1.0072944164276123,272.282215458497,0.0,0.0,0.0,0.0,75.3,45.0,118.11,0.0,0.0,0.0,4.82,71.36,86.15,4.82,-1.08,49.82,5.08
17,1.071110486984253,14700.0,0.0,0.0,0.0,0.0,75.3,45.0,118.11,0.0,0.0,0.0,5.0,71.1,86.24,5.0,-1.01,50.0,5.0
18,1.132075309753418,278.7223355407779,0.0,0.0,0.0,0.0,75.3,45.0,118.11,0.0,0.0,0.0,4.9,71.18,86.19,4.9,-0.98,49.9,5.04
19,1.1959757804870605,205.27977411926378,0.0,0.0,0.0,0.0,75.3,45.0,118.11,0.0,0.0,0.0,4.43,71.51,85.98,4.43,-0.83,49.43,5.2
20,1.2563385963439941,316.28134046772686,0.0,0.0,0.0,0.0,75.3,45.0,118.11,0.0,0.0,0.0,3.71,72.22,85.59,3.71,-0.81,48.71,5.54
21,1.3163666725158691,183.06247545639042,0.0,0.0,0.0,0.0,75.3,45.0,118.11,0.0,0.0,0.0,2.92,72.96,85.25,2.92,-0.74,47.92,5.84
22,1.3811092376708984,8137.789182667606,0.0,0.0,0.0,0.0,75.3,45.0,118.11,0.0,0.0,0.0,2.12,73.67,84.89,2.12,-0.63,47.12,6.16
23,1.444256067276001,168.55656718049747,0.0,0.0,0.0,0.0,75.3,45.0,118.11,0.0,0.0,0.0,1.48,74.22,84.6,1.48,-0.49,46.48,6.43
24,1.5075430870056152,167.48714000448274,0.0,0.0,0.0,0.0,75.3,45.0,118.11,0.0,0.0,0.0,1.3,74.41,84.52,1.3,-0.49,46.3,6.5
25,1.563066005706787,167.99062880082684,0.0,0.0,0.0,0.0,75.3,45.0,118.11,0.0,0.0,0.0,1.22,74.45,84.53,1.22,-0.45,46.22,6.49
26,1.6254100799560547,167.46174732332844,0.0,0.0,0.0,0.0,75.3,45.0,118.11,0.0,0.0,0.0,0.83,74.68,84.59,0.83,-0.26,45.83,6.42
27,1.6909079551696777,165.29529093326147,0.0,0.0,0.0,0.0,75.3,45.0,118.11,0.0,0.0,0.0,0.29,74.97,84.69,0.29,0.03,45.29,6.31
28,1.74627685546875,162.8067006717579,0.0,0.0,0.0,0.0,75.3,45.0,118.11,0.0,0.0,0.0,-0.22,75.22,84.78,-0.22,0.31,44.78,6.23
29,1.8003597259521484,166.3704629918627,0.0,0.0,0.0,0.0,75.3,45.0,118.11,0.0,0.0,0.0,-0.61,75.45,84.86,-0.61,0.5,44.39,6.16
30,1.8567466735839844,168.76252785369135,0.0,0.0,0.0,0.0,75.3,45.0,118.11,0.0,0.0,0.0,-1.08,75.68,84.97,-1.08,0.76,43.92,6.08
31,1.9139056205749512,170.15289806438165,0.0,0.0,0.0,0.0,75.3,45.0,118.11,0.0,0.0,0.0,-1.44,75.86,85.06,-1.44,0.96,43.56,6.01
32,1.974060297012329,14700.0,0.0,0.0,0.0,0.0,75.3,45.0,118.11,0.0,0.0,0.0,-1.51,75.9,85.08,-1.51,1.0,43.49,6.0
33,2.0283203125,258.80927207993614,0.0,0.0,0.0,0.0,75.3,45.0,118.11,0.0,0.0,0.0,-1.44,75.95,84.93,-1.44,0.87,43.56,6.13
34,2.082240343093872,118.46633538806587,0.0,0.0,0.0,0.0,75.3,45.0,118.11,0.0,0.0,0.0,-1.37,76.02,84.78,-1.37,0.74,43.63,6.27
35,2.1398234367370605,123.02977440912984,0.0,0.0,0.0,0.0,75.3,45.0,118.11,0.0,0.0,0.0,-1.3,76.1,84.63,-1.3,0.58,43.7,6.4
36,2.1932339668273926,127.15331544312896,0.0,0.0,0.0,0.0,75.3,45.0,118.11,0.0,0.0,0.0,-1.22,76.17,84.48,-1.22,0.44,43.78,6.54
37,2.250196933746338,127.73341878861028,0.0,0.0,0.0,0.0,75.3,45.0,118.11,0.0,0.0,0.0,-1.15,76.23,84.33,-1.15,0.3,43.85,6.69
38,2.3026130199432373,130.52037831815906,0.0,0.0,0.0,0.0,75.3,45.0,118.11,0.0,0.0,0.0,-1.08,76.3,84.18,-1.08,0.15,43.92,6.83
39,2.355074405670166,129.74755123586843,0.0,0.0,0.0,0.0,75.3,45.0,118.11,0.0,0.0,0.0,-1.01,76.37,84.03,-1.01,0.02,43.99,6.98
40,2.407897472381592,132.9900991556899,0.0,0.0,0.0,0.0,75.3,45.0,118.11,0.0,0.0,0.0,-1.01,76.38,84.01,-1.01,0.01,43.99,7.0
41,2.4642579555511475,261.8741822274972,0.0,0.0,0.0,0.0,75.3,45.0,118.11,0.0,0.0,0.0,-0.83,76.14,84.06,-0.83,0.05,44.17,6.95
42,2.5275747776031494,147.11866981911874,0.0,0.0,0.0,0.0,75.3,45.0,118.11,0.0,0.0,0.0,-0.58,75.8,84.15,-0.58,0.12,44.42,6.85
43,2.587139129638672,123.79714874478788,0.0,0.0,0.0,0.0,75.3,45.0,118.11,0.0,0.0,0.0,-0.32,75.42,84.23,-0.32,0.23,44.68,6.77
44,2.6452035903930664,123.16368769365779,0.0,0.0,0.0,0.0,75.3,45.0,118.11,0.0,0.0,0.0,-0.11,75.08,84.31,-0.11,0.34,44.89,6.7
45,2.69747257232666,100.0,0.0,0.0,0.0,0.0,75.3,45.0,118.11,0.0,0.0,0.0,0.11,74.78,84.39,0.11,0.41,45.11,6.62
46,2.750617504119873,135.473712890474,0.0,0.0,0.0,0.0,75.3,45.0,118.11,0.0,0.0,0.0,0.36,74.46,84.47,0.36,0.45,45.36,6.55
47,2.8071224689483643,111.96433782796375,0.0,0.0,0.0,0.0,75.3,45.0,118.11,0.0,0.0,0.0,0.5,74.27,84.53,0.5,0.49,45.5,6.5
48,2.862194538116455,108.7994764405811,0.0,0.0,0.0,0.0,75.3,45.0,118.11,0.0,0.0,0.0,0.47,74.27,84.5,0.47,0.53,45.47,6.53
49,2.9150869846343994,111.00277889866794,0.0,0.0,0.0,0.0,75.3,45.0,118.11,0.0,0.0,0.0,0.36,74.28,84.42,0.36,0.64,45.36,6.62
50,2.967916488647461,112.92048873223095,0.0,0.0,0.0,0.0,75.3,45.0,118.11,0.0,0.0,0.0,0.29,74.28,84.33,0.29,0.71,45.29,6.71
51,3.0233869552612305,100.0,0.0,0.0,0.0,0.0,75.3,45.0,118.11,0.0,0.0,0.0,0.18,74.29,84.24,0.18,0.82,45.18,6.81
52,3.0776216983795166,173.5594403395829,0.0,0.0,0.0,0.0,75.3,45.0,118.11,0.0,0.0,0.0,0.07,74.3,84.15,0.07,0.93,45.07,6.91
53,3.131925582885742,100.0,0.0,0.0,0.0,0.0,75.3,45.0,118.11,0.0,0.0,0.0,0.0,74.3,84.07,0.0,1.0,45.0,7.0
54,3.185058832168579,106.5771419492384,0.0,0.0,0.0,0.0,75.3,45.0,118.11,0.0,0.0,0.0,-0.11,74.31,83.98,-0.11,1.1,44.89,7.11
55,3.237835168838501,109.75058913512773,0.0,0.0,0.0,0.0,75.3,45.0,118.11,0.0,0.0,0.0,-0.22,74.32,83.9,-0.22,1.21,44.78,7.19
56,3.2907094955444336,535.3467797979763,0.0,0.0,0.0,0.0,75.3,45.0,118.11,0.0,0.0,0.0,-0.22,74.34,83.88,-0.22,1.2,44.78,7.22
57,3.3474950790405273,14700.0,0.0,0.0,0.0,0.0,75.3,45.0,118.11,0.0,0.0,0.0,-0.32,74.41,83.78,-0.32,1.24,44.68,7.32
58,3.4066286087036133,9040.712001159009,0.0,0.0,0.0,0.0,75.3,45.0,118.11,0.0,0.0,0.0,-0.47,74.5,83.66,-0.47,1.31,44.53,7.44
59,3.463945150375366,178.98021808356626,0.0,0.0,0.0,0.0,75.3,45.0,118.11,0.0,0.0,0.0,-0.58,74.58,83.54,-0.58,1.34,44.42,7.57
60,3.5234034061431885,143.6616304755469,0.0,0.0,0.0,0.0,75.3,45.0,118.11,0.0,0.0,0.0,-0.68,74.67,83.42,-0.68,1.37,44.32,7.7
61,3.5804715156555176,173.68384756504463,0.0,0.0,0.0,0.0,75.3,45.0,118.11,0.0,0.0,0.0,-0.83,74.76,83.3,-0.83,1.44,44.17,7.82
62,3.6346631050109863,171.54587903011128,0.0,0.0,0.0,0.0,75.3,45.0,118.11,0.0,0.0,0.0,-0.94,74.84,83.19,-0.94,1.48,44.06,7.93
63,3.6875908374786377,100.0,0.0,0.0,0.0,0.0,75.3,45.0,118.11,0.0,0.0,0.0,-1.01,74.89,83.13,-1.01,1.51,43.99,8.0
64,3.7445836067199707,100.0,0.0,0.0,0.0,0.0,75.3,45.0,118.11,0.0,0.0,0.0,-1.01,74.89,83.13,-1.01,1.51,43.99,8.0
65,3.7971346378326416,100.0,0.0,0.0,0.0,0.0,75.3,45.0,118.11,0.0,0.0,0.0,-1.01,74.89,83.13,-1.01,1.51,43.99,8.0
66,3.8505852222442627,112.40099203032251,0.0,0.0,0.0,0.0,75.3,45.0,118.11,0.0,0.0,0.0,-1.01,74.89,83.13,-1.01,1.51,43.99,8.0
67,3.9053571224212646,100.0,0.0,0.0,0.0,0.0,75.3,45.0,118.11,0.0,0.0,0.0,-1.01,74.89,83.13,-1.01,1.51,43.99,8.0
68,3.9636292457580566,103.15642071636734,0.0,0.0,0.0,0.0,75.3,45.0,118.11,0.0,0.0,0.0,-1.01,74.89,83.13,-1.01,1.51,43.99,8.0
69,4.018270015716553,223.71733509111849,0.0,0.0,0.0,0.0,75.3,45.0,118.11,0.0,0.0,0.0,-1.01,74.89,83.13,-1.01,1.51,43.99,8.0
70,4.0771307945251465,7956.2984807742705,0.0,0.0,0.0,0.0,75.3,45.0,118.11,0.0,0.0,0.0,-1.01,74.95,83.24,-1.01,1.45,43.99,7.88
71,4.14211368560791,183.2327843862657,0.0,0.0,0.0,0.0,75.3,45.0,118.11,0.0,0.0,0.0,-1.12,75.11,83.57,-1.12,1.4,43.88,7.55
72,4.202569007873535,178.33378668202457,0.0,0.0,0.0,0.0,75.3,45.0,118.11,0.0,0.0,0.0,-1.19,75.3,83.89,-1.19,1.28,43.81,7.21
73,4.264307022094727,173.19155082370594,0.0,0.0,0.0,0.0,75.3,45.0,118.11,0.0,0.0,0.0,-1.3,75.44,84.22,-1.3,1.25,43.7,6.88
74,4.324483394622803,175.61507180098482,0.0,0.0,0.0,0.0,75.3,45.0,118.11,0.0,0.0,0.0,-1.37,75.61,84.57,-1.37,1.15,43.63,6.52
75,4.389627695083618,162.5229324323213,0.0,0.0,0.0,0.0,75.3,45.0,118.11,0.0,0.0,0.0,-1.44,75.78,84.9,-1.44,1.04,43.56,6.18
76,4.453984498977661,193.81581841883659,0.0,0.0,0.0,0.0,75.3,45.0,118.11,0.0,0.0,0.0,-1.51,75.89,85.08,-1.51,1.01,43.49,6.0
77,4.514984607696533,175.95209783378272,0.0,0.0,0.0,0.0,75.3,45.0,118.11,0.0,0.0,0.0,-1.51,75.89,85.08,-1.51,1.01,43.49,6.0
78,4.581053972244263,104.44303592858539,0.0,0.0,0.0,0.0,75.3,45.0,118.11,0.0,0.0,0.0,-1.51,75.89,85.08,-1.51,1.01,43.49,6.0
79,4.642191648483276,130.84381412501534,0.0,0.0,0.0,0.0,75.3,45.0,118.11,0.0,0.0,0.0,-1.3,75.73,85.02,-1.3,0.94,43.7,6.04
80,4.705099582672119,658.3717856108384,0.0,0.0,0.0,0.0,75.3,45.0,118.11,0.0,0.0,0.0,-0.97,75.47,84.92,-0.97,0.86,44.03,6.13
81,4.764422416687012,101.63337253130719,0.0,0.0,0.0,0.0,75.3,45.0,118.11,0.0,0.0,0.0,-0.61,75.18,84.82,-0.61,0.77,44.39,6.22
82,4.830553293228149,102.54665425020622,0.0,0.0,0.0,0.0,75.3,45.0,118.11,0.0,0.0,0.0,-0.25,74.86,84.73,-0.25,0.7,44.75,6.31
83,4.8883891105651855,102.68759787008892,0.0,0.0,0.0,0.0,75.3,45.0,118.11,0.0,0.0,0.0,0.07,74.62,84.64,0.07,0.61,45.07,6.39
84,4.9482033252716064,104.85813280934076,0.0,0.0,0.0,0.0,75.3,45.0,118.11,0.0,0.0,0.0,0.4,74.35,84.56,0.4,0.53,45.4,6.47
85,5.01016640663147,100.0,0.0,0.0,0.0,0.0,75.3,45.0,118.11,0.0,0.0,0.0,0.5,74.27,84.53,0.5,0.49,45.5,6.5
86,5.072098255157471,14700.0,0.0,0.0,0.0,0.0,75.3,45.0,118.11,0.0,0.0,0.0,0.36,74.4,84.57,0.36,0.52,45.36,6.46
87,5.138285160064697,14700.0,0.0,0.0,0.0,0.0,75.3,45.0,118.11,0.0,0.0,0.0,-0.04,74.7,84.67,-0.04,0.63,44.96,6.36
88,5.1991119384765625,231.43351788002468,0.0,0.0,0.0,0.0,75.3,45.0,118.11,0.0,0.0,0.0,-0.4,75.01,84.76,-0.4,0.71,44.6,6.28
89,5.258692741394043,128.6481211774531,0.0,0.0,0.0,0.0,75.3,45.0,118.11,0.0,0.0,0.0,-0.72,75.24,84.86,-0.72,0.82,44.28,6.19
90,5.320294141769409,127.98330299591015,0.0,0.0,0.0,0.0,75.3,45.0,118.11,0.0,0.0,0.0,-1.04,75.54,84.94,-1.04,0.86,43.96,6.11
91,5.380387306213379,126.80247891755444,0.0,0.0,0.0,0.0,75.3,45.0,118.11,0.0,0.0,0.0,-1.4,75.81,85.04,-1.4,0.98,43.6,6.03
92,5.446219205856323,138.16510233298274,0.0,0.0,0.0,0.0,75.3,45.0,118.11,0.0,0.0,0.0,-1.51,75.89,85.08,-1.51,1.01,43.49,6.0
93,5.507395029067993,126.78928848415734,0.0,0.0,0.0,0.0,75.3,45.0,118.11,0.0,0.0,0.0,-1.37,75.76,85.03,-1.37,0.99,43.63,6.04
94,5.570819616317749,122.17180932745703,0.0,0.0,0.0,0.0,75.3,45.0,118.11,0.0,0.0,0.0,-0.94,75.46,84.92,-0.94,0.84,44.06,6.13
95,5.631764888763428,111.291369093007,0.0,0.0,0.0,0.0,75.3,45.0,118.11,0.0,0.0,0.0,-0.61,75.2,84.82,-0.61,0.75,44.39,6.22
96,5.692189455032349,106.58249649764203,0.0,0.0,0.0,0.0,75.3,45.0,118.11,0.0,0.0,0.0,-0.29,74.92,84.73,-0.29,0.69,44.71,6.31
97,5.7520527839660645,113.49946903353054,0.0,0.0,0.0,0.0,75.3,45.0,118.11,0.0,0.0,0.0,0.04,74.67,84.66,0.04,0.59,45.04,6.37
98,5.816072702407837,100.0,0.0,0.0,0.0,0.0,75.3,45.0,118.11,0.0,0.0,0.0,0.4,74.38,84.55,0.4,0.49,45.4,6.47
99,5.87693977355957,164.69028101666964,0.0,0.0,0.0,0.0,75.3,45.0,118.11,0.0,0.0,0.0,0.5,74.27,84.53,0.5,0.49,45.5,6.5
100,5.936196565628052,162.39217531288978,0.0,0.0,0.0,0.0,75.3,45.0,118.11,0.0,0.0,0.0,0.36,74.39,84.57,0.36,0.52,45.36,6.46
101,5.995097398757935,163.02516993036755,0.0,0.0,0.0,0.0,75.3,45.0,118.11,0.0,0.0,0.0,0.04,74.66,84.65,0.04,0.61,45.04,6.38
102,6.058268308639526,161.70736116966992,0.0,0.0,0.0,0.0,75.3,45.0,118.11,0.0,0.0,0.0,-0.36,74.91,84.75,-0.36,0.77,44.64,6.29
103,6.121125221252441,138.1444205492223,0.0,0.0,0.0,0.0,75.3,45.0,118.11,0.0,0.0,0.0,-0.68,75.22,84.84,-0.68,0.81,44.32,6.21
104,6.186346530914307,125.13418651704592,0.0,0.0,0.0,0.0,75.3,45.0,118.11,0.0,0.0,0.0,-1.01,75.53,84.94,-1.01,0.84,43.99,6.11
105,6.245962858200073,123.54683286340381,0.0,0.0,0.0,0.0,75.3,45.0,118.11,0.0,0.0,0.0,-1.37,75.78,85.05,-1.37,0.96,43.63,6.02
106,6.306005954742432,124.39454503185841,0.0,0.0,0.0,0.0,75.3,45.0,118.11,0.0,0.0,0.0,-1.51,75.89,85.08,-1.51,1.01,43.49,6.0
107,6.364231586456299,121.53151082422335,0.0,0.0,0.0,0.0,75.3,45.0,118.11,0.0,0.0,0.0,-1.4,75.8,85.05,-1.4,0.99,43.6,6.03
108,6.4264280796051025,124.14756402832411,0.0,0.0,0.0,0.0,75.3,45.0,118.11,0.0,0.0,0.0,-1.04,75.55,84.95,-1.04,0.85,43.96,6.1
109,6.490217208862305,279.8163029643307,0.0,0.0,0.0,0.0,75.3,45.0,118.11,0.0,0.0,0.0,-0.68,75.28,84.85,-0.68,0.75,44.32,6.19
110,6.549667119979858,256.83811069397024,0.0,0.0,0.0,0.0,75.3,45.0,118.11,0.0,0.0,0.0,-0.36,74.96,84.75,-0.36,0.72,44.64,6.29
111,6.608182430267334,223.33057003935434,0.0,0.0,0.0,0.0,75.3,45.0,118.11,0.0,0.0,0.0,-0.04,74.69,84.66,-0.04,0.65,44.96,6.37
112,6.66803503036499,147.0229270225984,0.0,0.0,0.0,0.0,75.3,45.0,118.11,0.0,0.0,0.0,0.29,74.42,84.58,0.29,0.57,45.29,6.44
113,6.72775411605835,14700.0,0.0,0.0,0.0,0.0,75.3,45.0,118.11,0.0,0.0,0.0,0.5,74.27,84.53,0.5,0.49,45.5,6.5
114,6.781628847122192,14700.0,0.0,0.0,0.0,0.0,75.3,45.0,118.11,0.0,0.0,0.0,0.43,74.31,84.54,0.43,0.53,45.43,6.48
115,6.840137958526611,115.97875631897887,0.0,0.0,0.0,0.0,75.3,45.0,118.11,0.0,0.0,0.0,0.14,74.54,84.62,0.14,0.61,45.14,6.41
116,6.895577907562256,117.36656552385314,0.0,0.0,0.0,0.0,75.3,45.0,118.11,0.0,0.0,0.0,-0.14,74.78,84.69,-0.14,0.67,44.86,6.35
117,6.949561595916748,118.04831342962707,0.0,0.0,0.0,0.0,75.3,45.0,118.11,0.0,0.0,0.0,-0.47,75.03,84.78,-0.47,0.77,44.53,6.27
118,7.010297060012817,139.45486949721024,0.0,0.0,0.0,0.0,75.3,45.0,118.11,0.0,0.0,0.0,-0.79,75.3,84.86,-0.79,0.84,44.21,6.19
119,7.070429086685181,118.98073009377188,0.0,0.0,0.0,0.0,75.3,45.0,118.11,0.0,0.0,0.0,-1.15,75.58,84.96,-1.15,0.94,43.85,6.11
120,7.126838207244873,122.5764115885117,0.0,0.0,0.0,0.0,75.3,45.0,118.11,0.0,0.0,0.0,-1.4,75.82,85.06,-1.4,0.96,43.6,6.02
121,7.183375120162964,119.27581547605779,0.0,0.0,0.0,0.0,75.3,45.0,118.11,0.0,0.0,0.0,-1.51,75.89,85.08,-1.51,1.01,43.49,6.0
122,7.245231628417969,140.48680098593866,0.0,0.0,0.0,0.0,75.3,45.0,118.11,0.0,0.0,0.0,-1.37,75.77,85.05,-1.37,0.98,43.63,6.03
123,7.310694456100464,137.46740274791787,0.0,0.0,0.0,0.0,75.3,45.0,118.11,0.0,0.0,0.0,-0.97,75.5,84.93,-0.97,0.83,44.03,6.12
124,7.3711066246032715,134.1038519142667,0.0,0.0,0.0,0.0,75.3,45.0,118.11,0.0,0.0,0.0,-0.65,75.18,84.83,-0.65,0.81,44.35,6.22
125,7.431625127792358,137.27970914210562,0.0,0.0,0.0,0.0,75.3,45.0,118.11,0.0,0.0,0.0,-0.29,74.91,84.74,-0.29,0.69,44.71,6.29
126,7.489828109741211,153.45960785517204,0.0,0.0,0.0,0.0,75.3,45.0,118.11,0.0,0.0,0.0,0.04,74.66,84.65,0.04,0.61,45.04,6.38
127,7.542055130004883,150.40111561791275,0.0,0.0,0.0,0.0,75.3,45.0,118.11,0.0,0.0,0.0,0.32,74.42,84.57,0.32,0.54,45.32,6.46
128,7.594608783721924,152.10609192084357,0.0,0.0,0.0,0.0,75.3,45.0,118.11,0.0,0.0,0.0,0.5,74.27,84.53,0.5,0.49,45.5,6.5
129,7.651059150695801,153.83072369583164,0.0,0.0,0.0,0.0,75.3,45.0,118.11,0.0,0.0,0.0,0.43,74.31,84.54,0.43,0.53,45.43,6.48
130,7.704016923904419,148.0332245773279,0.0,0.0,0.0,0.0,75.3,45.0,118.11,0.0,0.0,0.0,0.22,74.5,84.6,0.22,0.57,45.22,6.43
131,7.7566468715667725,148.14984359470935,0.0,0.0,0.0,0.0,75.3,45.0,118.11,0.0,0.0,0.0,-0.07,74.75,84.68,-0.07,0.62,44.93,6.35
132,7.80945348739624,148.50777972306227,0.0,0.0,0.0,0.0,75.3,45.0,118.11,0.0,0.0,0.0,-0.4,75.0,84.76,-0.4,0.72,44.6,6.28
133,7.862259864807129,147.7758997118609,0.0,0.0,0.0,0.0,75.3,45.0,118.11,0.0,0.0,0.0,-0.65,75.23,84.84,-0.65,0.76,44.35,6.2
134,7.915380477905273,168.4533430005155,0.0,0.0,0.0,0.0,75.3,45.0,118.11,0.0,0.0,0.0,-0.97,75.46,84.92,-0.97,0.87,44.03,6.14
135,7.968641042709351,165.5421030789221,0.0,0.0,0.0,0.0,75.3,45.0,118.11,0.0,0.0,0.0,-1.26,75.7,85.01,-1.26,0.93,43.74,6.06
136,8.021405696868896,161.48665347798288,0.0,0.0,0.0,0.0,75.3,45.0,118.11,0.0,0.0,0.0,-1.51,75.89,85.08,-1.51,1.01,43.49,6.0
137,8.075782299041748,166.62463802546355,0.0,0.0,0.0,0.0,75.3,45.0,118.11,0.0,0.0,0.0,-1.51,75.9,85.05,-1.51,1.0,43.49,6.03
138,8.130481481552124,442.1392017454651,0.0,0.0,0.0,0.0,75.3,45.0,118.11,0.0,0.0,0.0,-1.44,75.95,84.93,-1.44,0.87,43.56,6.13
139,8.185204029083252,180.1245694423649,0.0,0.0,0.0,0.0,75.3,45.0,118.11,0.0,0.0,0.0,-1.37,76.02,84.75,-1.37,0.73,43.63,6.29
140,8.239065408706665,180.31124396200352,0.0,0.0,0.0,0.0,75.3,45.0,118.11,0.0,0.0,0.0,-1.3,76.1,84.61,-1.3,0.58,43.7,6.42
141,8.292097091674805,179.5152882931662,0.0,0.0,0.0,0.0,75.3,45.0,118.11,0.0,0.0,0.0,-1.22,76.16,84.46,-1.22,0.45,43.78,6.56
142,8.345836639404297,179.9881876560958,0.0,0.0,0.0,0.0,75.3,45.0,118.11,0.0,0.0,0.0,-1.15,76.23,84.31,-1.15,0.3,43.85,6.7
143,8.398998737335205,185.9921165115627,0.0,0.0,0.0,0.0,75.3,45.0,118.11,0.0,0.0,0.0,-1.08,76.3,84.17,-1.08,0.16,43.92,6.84
144,8.457933187484741,189.83056984353237,0.0,0.0,0.0,0.0,75.3,45.0,118.11,0.0,0.0,0.0,-1.01,76.38,84.01,-1.01,0.01,43.99,7.0
145,8.510769605636597,191.1716206115492,0.0,0.0,0.0,0.0,75.3,45.0,118.11,0.0,0.0,0.0,-0.97,76.37,84.02,-0.97,-0.02,44.03,6.99
146,8.563542604446411,264.524224344566,0.0,0.0,0.0,0.0,75.3,45.0,118.11,0.0,0.0,0.0,-0.83,76.15,84.07,-0.83,0.04,44.17,6.93
147,8.616252422332764,191.22607225033397,0.0,0.0,0.0,0.0,75.3,45.0,118.11,0.0,0.0,0.0,-0.61,75.84,84.14,-0.61,0.12,44.39,6.86
148,8.670440196990967,191.3340363683173,0.0,0.0,0.0,0.0,75.3,45.0,118.11,0.0,0.0,0.0,-0.4,75.53,84.22,-0.4,0.2,44.6,6.79
149,8.724915504455566,192.57234447549797,0.0,0.0,0.0,0.0,75.3,45.0,118.11,0.0,0.0,0.0,-0.18,75.2,84.29,-0.18,0.29,44.82,6.72
150,8.77973222732544,588.5740637515064,0.0,0.0,0.0,0.0,75.3,45.0,118.11,0.0,0.0,0.0,0.04,74.82,84.37,0.04,0.44,45.04,6.65
151,8.834570169448853,235.41136252078,0.0,0.0,0.0,0.0,75.3,45.0,118.11,0.0,0.0,0.0,0.32,74.51,84.46,0.32,0.44,45.32,6.55
152,8.8878014087677,219.33692413025076,0.0,0.0,0.0,0.0,75.3,45.0,118.11,0.0,0.0,0.0,0.5,74.27,84.53,0.5,0.49,45.5,6.5
153,8.940841913223267,214.34088465745447,0.0,0.0,0.0,0.0,75.3,45.0,118.11,0.0,0.0,0.0,0.47,74.29,84.54,0.47,0.51,45.47,6.48
154,8.99381399154663,212.23365655101026,0.0,0.0,0.0,0.0,75.3,45.0,118.11,0.0,0.0,0.0,0.29,74.44,84.58,0.29,0.55,45.29,6.44
155,9.047168016433716,199.22262340430837,0.0,0.0,0.0,0.0,75.3,45.0,118.11,0.0,0.0,0.0,0.0,74.69,84.66,0.0,0.61,45.0,6.37
156,9.101210355758667,196.04085871678083,0.0,0.0,0.0,0.0,75.3,45.0,118.11,0.0,0.0,0.0,-0.29,74.92,84.74,-0.29,0.69,44.71,6.3
157,9.155590057373047,204.20903665318724,0.0,0.0,0.0,0.0,75.3,45.0,118.11,0.0,0.0,0.0,-0.61,75.18,84.82,-0.61,0.77,44.39,6.22
158,9.209542274475098,208.14036205722434,0.0,0.0,0.0,0.0,75.3,45.0,118.11,0.0,0.0,0.0,-0.9,75.42,84.9,-0.9,0.84,44.1,6.15
159,9.265776634216309,172.54062457970272,0.0,0.0,0.0,0.0,75.3,45.0,118.11,0.0,0.0,0.0,-1.22,75.67,85.0,-1.22,0.92,43.78,6.06
160,9.318722486495972,161.81723051861167,0.0,0.0,0.0,0.0,75.3,45.0,118.11,0.0,0.0,0.0,-1.48,75.86,85.07,-1.48,1.0,43.52,6.01
161,9.37171721458435,173.90907179171293,0.0,0.0,0.0,0.0,75.3,45.0,118.11,0.0,0.0,0.0,-1.51,75.89,85.08,-1.51,1.01,43.49,6.0
