,times,frequency,temperature,mass_flow,volume_flow,mouth_pressure,offset,theta,radius,alpha,z,x,alpha_ref,z_ref,x_ref,flow_ref,offset_ref,theta_ref,radius_ref
0,0.0,203.84062027671877,20.637500762939453,0.001953125,0.00390625,-11.18954086303711,0.45,35.01,10.5,-9.99,86.66,80.77,-9.99,86.66,80.77,0.0,0.45,35.01,10.5
1,0.02214527130126953,203.84062027671877,20.637500762939453,0.001953125,0.00390625,-11.18954086303711,0.45,35.01,10.5,-9.99,86.66,80.77,-9.99,86.66,80.77,0.0,0.45,35.01,10.5
2,0.04171180725097656,203.84062027671877,20.637500762939453,0.001953125,0.00390625,-11.18954086303711,0.45,35.01,10.5,-9.99,86.66,80.77,-9.99,86.66,80.77,0.0,0.45,35.01,10.5
3,0.07123112678527832,112.52709712523966,20.637500762939453,0.001953125,0.00390625,-11.226028442382812,0.45,35.01,10.5,-9.99,86.66,80.77,-9.99,86.66,80.8,0.0,0.45,35.01,10.47
4,0.10275936126708984,112.52709712523966,20.637500762939453,0.001953125,0.00390625,-11.226028442382812,0.45,35.01,10.5,-9.99,86.66,80.77,-9.99,86.66,80.82,0.0,0.44,35.01,10.45
5,0.13329720497131348,295.4759783574793,20.637500762939453,0.001953125,0.00390625,-11.213866233825684,0.45,35.01,10.5,-9.99,86.66,80.77,-9.99,86.66,80.84,0.0,0.44,35.01,10.43
6,0.16534852981567383,295.4759783574793,20.637500762939453,0.001953125,0.00390625,-11.432791709899902,0.45,35.01,10.5,-9.99,86.66,80.77,-9.99,86.66,80.87,9.58203125,0.44,35.01,10.4
7,0.1964397430419922,173.27354751491788,20.637500762939453,0.001953125,0.00390625,-11.432791709899902,0.45,35.01,10.49,-9.99,86.66,80.78,-10.08,86.66,80.9,9.58203125,0.53,34.92,10.37
8,0.22885417938232422,173.27354751491788,20.637500762939453,0.001953125,0.00390625,-11.226028442382812,0.45,35.01,10.49,-9.99,86.66,80.78,-10.08,86.66,80.91,9.67578125,0.53,34.92,10.36
9,0.260817289352417,1229.0628140273463,20.637500762939453,0.001953125,0.00390625,-11.128728866577148,0.44,35.01,10.46,-9.99,86.66,80.81,-10.08,86.66,80.94,9.67578125,0.53,34.92,10.34
10,0.29039907455444336,1229.0628140273463,20.637500762939453,0.001953125,0.00390625,-11.128728866577148,0.44,35.01,10.43,-9.99,86.66,80.84,-10.08,86.66,80.97,9.67578125,0.52,34.92,10.31
11,0.3221468925476074,229.53146706448885,20.637500762939453,0.001953125,0.00390625,-11.153053283691406,0.44,35.01,10.43,-9.99,86.66,80.84,-10.08,86.66,80.99,9.770312309265137,0.52,34.92,10.29
12,0.3536496162414551,229.53146706448885,20.637500762939453,0.001953125,0.00390625,-11.153053283691406,0.43,35.01,10.39,-9.99,86.66,80.88,-10.08,86.66,81.02,9.770312309265137,0.51,34.92,10.26
13,0.38431310653686523,939.998083420232,20.637500762939453,0.00390625,0.005859375,-11.17737865447998,0.43,35.01,10.35,-9.99,86.66,80.92,-10.08,86.66,81.04,9.865625381469727,0.51,34.92,10.23
14,0.4160149097442627,939.998083420232,20.637500762939453,0.00390625,0.005859375,-11.116565704345703,0.43,35.01,10.35,-9.99,86.66,80.92,-10.08,86.66,81.07,9.9609375,0.5,34.92,10.2
15,0.4487154483795166,1383.4194430473071,20.637500762939453,0.00390625,0.005859375,-11.116565704345703,0.52,34.92,10.3,-10.08,86.66,80.97,-10.08,86.66,81.1,9.9609375,0.5,34.92,10.17
16,0.47846412658691406,1383.4194430473071,20.637500762939453,0.00390625,0.005859375,-10.909802436828613,0.52,34.92,10.3,-10.08,86.66,80.97,-10.08,86.66,81.13,10.0546875,0.49,34.92,10.14
17,0.510026216506958,71.36316160174634,20.637500762939453,0.001953125,0.00390625,-10.946290016174316,0.51,34.92,10.25,-10.08,86.66,81.02,-10.08,86.66,81.16,10.0546875,0.49,34.92,10.12
18,0.5408978462219238,71.36316160174634,20.637500762939453,0.001953125,0.00390625,-10.946290016174316,0.5,34.92,10.22,-10.08,86.66,81.06,-10.08,86.66,81.19,10.0546875,0.48,34.92,10.09
19,0.5710742473602295,1247.7261529569457,20.637500762939453,0.001953125,0.001953125,-11.031428337097168,0.5,34.92,10.22,-10.08,86.66,81.06,-10.08,86.66,81.22,10.150781631469727,0.47,34.92,10.06
20,0.603172779083252,1247.7261529569457,20.637500762939453,0.001953125,0.001953125,-11.031428337097168,0.5,34.92,10.17,-10.08,86.66,81.11,-10.08,86.67,81.25,10.150781631469727,0.47,34.92,10.03
21,0.6337356567382812,153.83057601555106,20.637500762939453,0.001953125,0.001953125,-11.092241287231445,0.49,34.92,10.12,-10.08,86.66,81.16,-10.08,86.67,81.28,10.244531631469727,0.46,34.92,10.0
22,0.6653914451599121,153.83057601555106,20.637500762939453,0.001953125,0.00390625,-11.153053283691406,0.49,34.92,10.12,-10.08,86.66,81.16,-10.08,86.67,81.31,10.338281631469727,0.45,34.92,9.97
23,0.6964566707611084,269.44111538507616,20.637500762939453,0.001953125,0.00390625,-11.153053283691406,0.48,34.92,10.07,-10.08,86.66,81.21,-10.08,86.67,81.34,10.338281631469727,0.45,34.92,9.94
24,0.7270832061767578,269.44111538507616,20.637500762939453,0.001953125,0.00390625,-11.226028442382812,0.48,34.92,10.07,-10.08,86.66,81.21,-10.08,86.67,81.37,10.43359375,0.44,34.92,9.91
25,0.7602930068969727,2100.0,20.640625,0.001953125,0.001953125,-11.213866233825684,0.46,34.92,10.02,-10.08,86.67,81.26,-10.08,86.67,81.41,10.43359375,0.43,34.92,9.87
26,0.7905025482177734,2100.0,20.640625,0.001953125,0.001953125,-11.213866233825684,0.46,34.92,9.97,-10.08,86.67,81.31,-10.08,86.67,81.46,10.43359375,0.42,34.92,9.82
27,0.8219351768493652,189.89413187517354,20.640625,-0.001953125,-0.001953125,-11.3963041305542,0.46,34.92,9.97,-10.08,86.67,81.31,-10.08,86.68,81.49,10.525781631469727,0.41,34.92,9.79
28,0.8565618991851807,189.89413187517354,20.640625,-0.001953125,-0.001953125,-11.3963041305542,0.44,34.92,9.91,-10.08,86.67,81.37,-10.08,86.68,81.53,10.525781631469727,0.41,34.92,9.76
29,0.8792552947998047,148.80666448995015,20.640625,-0.0078125,-0.01171875,-11.371979713439941,0.43,34.92,9.85,-10.08,86.67,81.43,-10.08,86.68,81.56,10.62109375,0.4,34.92,9.72
30,0.8997135162353516,148.80666448995015,20.640625,-0.0078125,-0.01171875,-11.457117080688477,0.43,34.92,9.85,-10.08,86.67,81.43,-10.08,86.68,81.56,10.62109375,0.4,34.92,9.72
31,0.9331610202789307,514.8906409979346,20.640625,0.00390625,0.0078125,-11.457117080688477,0.43,34.92,9.85,-10.08,86.67,81.43,-10.17,86.68,81.61,10.71484375,0.49,34.83,9.68
32,0.9634127616882324,514.8906409979346,20.640625,0.00390625,0.0078125,-11.48144245147705,0.42,34.92,9.79,-10.08,86.67,81.49,-10.17,86.69,81.65,10.81015682220459,0.48,34.83,9.64
33,0.9935033321380615,112.81182943885746,20.640625,0.00390625,0.005859375,-11.48144245147705,0.41,34.92,9.73,-10.08,86.67,81.55,-10.17,86.69,81.68,10.81015682220459,0.47,34.83,9.61
34,1.0265069007873535,112.81182943885746,20.640625,0.001953125,0.001953125,-11.49360466003418,0.4,34.92,9.73,-10.08,86.68,81.55,-10.17,86.69,81.72,10.9296875,0.46,34.83,9.57
35,1.052333116531372,116.92503335519446,20.640625,0.013671875,0.01953125,-11.457117080688477,0.49,34.83,9.7,-10.17,86.68,81.59,-10.17,86.69,81.75,10.9296875,0.45,34.83,9.54
36,1.0820486545562744,116.92503335519446,20.640625,0.013671875,0.01953125,-11.457117080688477,0.48,34.83,9.64,-10.17,86.68,81.65,-10.17,86.7,81.79,10.9296875,0.44,34.83,9.5
37,1.104142665863037,116.92503335519446,20.640625,0.013671875,0.01953125,-11.457117080688477,0.48,34.83,9.64,-10.17,86.68,81.65,-10.17,86.7,81.79,10.9296875,0.44,34.83,9.5
38,1.1321179866790771,123.71506780108186,20.640625,0.009765625,0.015625,-11.724693298339844,0.48,34.83,9.64,-10.17,86.68,81.65,-10.17,86.7,81.84,11.007031440734863,0.43,34.83,9.45
39,1.163128137588501,123.71506780108186,20.640625,0.0,0.0,-11.517930030822754,0.46,34.83,9.57,-10.17,86.69,81.72,-10.17,86.7,81.86,11.055468559265137,0.43,34.83,9.43
40,1.1954081058502197,127.15628887112126,20.640625,0.0,0.0,-11.517930030822754,0.45,34.83,9.51,-10.17,86.69,81.78,-10.17,86.7,81.9,11.055468559265137,0.42,34.83,9.39
41,1.226775884628296,127.15628887112126,20.640625,0.0,0.001953125,-11.347654342651367,0.45,34.83,9.51,-10.17,86.69,81.78,-10.17,86.71,81.93,11.171093940734863,0.41,34.83,9.36
42,1.2574379444122314,132.9134357223163,20.640625,0.0,0.0,-11.238191604614258,0.43,34.83,9.45,-10.17,86.7,81.84,-10.17,86.71,81.99,11.171093940734863,0.39,34.83,9.3
43,1.2897801399230957,132.9134357223163,20.640625,0.0,0.0,-11.238191604614258,0.42,34.83,9.39,-10.17,86.7,81.9,-10.17,86.71,82.01,11.171093940734863,0.39,34.83,9.29
44,1.3193085193634033,131.94856729337928,20.640625,0.0,0.001953125,-11.371979713439941,0.42,34.83,9.39,-10.17,86.7,81.9,-10.17,86.72,82.05,11.266406059265137,0.38,34.83,9.25
45,1.3526391983032227,131.94856729337928,20.640625,0.0,0.001953125,-11.371979713439941,0.4,34.83,9.33,-10.17,86.7,81.96,-10.17,86.72,82.08,11.266406059265137,0.37,34.83,9.21
46,1.3830657005310059,136.24793991429829,20.64375114440918,0.0,0.0,-11.299004554748535,0.4,34.83,9.33,-10.17,86.7,81.96,-10.26,86.72,82.14,11.360156059265137,0.46,34.74,9.16
47,1.4144113063812256,136.24793991429829,20.64375114440918,0.001953125,1.0587911840678754e-22,-11.262516021728516,0.39,34.83,9.26,-10.17,86.71,82.03,-10.26,86.72,82.17,11.453906059265137,0.45,34.74,9.13
48,1.4456815719604492,78.45857040766954,20.64375114440918,0.001953125,0.00390625,-11.262516021728516,0.38,34.83,9.2,-10.17,86.71,82.1,-10.26,86.73,82.21,11.453906059265137,0.44,34.74,9.09
49,1.476311445236206,78.45857040766954,20.64375114440918,0.001953125,0.00390625,-11.201704025268555,0.37,34.83,9.2,-10.17,86.71,82.1,-10.26,86.73,82.25,11.547656059265137,0.43,34.74,9.05
50,1.5068416595458984,168.05852753390334,20.64375114440918,0.001953125,0.00390625,-11.213866233825684,0.45,34.74,9.14,-10.26,86.72,82.16,-10.26,86.73,82.29,11.547656059265137,0.42,34.74,9.02
51,1.5390965938568115,168.05852753390334,20.64375114440918,0.001953125,0.00390625,-11.213866233825684,0.44,34.74,9.07,-10.26,86.72,82.23,-10.26,86.73,82.32,11.547656059265137,0.41,34.74,8.98
52,1.568040370941162,169.4133732144402,20.64375114440918,0.001953125,0.00390625,-11.201704025268555,0.44,34.74,9.07,-10.26,86.72,82.23,-10.26,86.74,82.36,11.64218807220459,0.4,34.74,8.94
53,1.601820707321167,169.4133732144402,20.64375114440918,0.001953125,0.00390625,-11.201704025268555,0.42,34.74,9.01,-10.26,86.73,82.3,-10.26,86.74,82.4,11.64218807220459,0.39,34.74,8.91
54,1.6314833164215088,172.23712585366872,20.64375114440918,0.001953125,0.00390625,-11.335492134094238,0.42,34.74,9.01,-10.26,86.73,82.3,-10.26,86.74,82.44,11.73593807220459,0.38,34.74,8.87
55,1.6630942821502686,172.23712585366872,20.64375114440918,0.001953125,0.00390625,-11.311166763305664,0.4,34.74,8.94,-10.26,86.74,82.37,-10.26,86.74,82.47,11.831250190734863,0.38,34.74,8.83
56,1.6956117153167725,762.656484455909,20.64375114440918,0.001953125,0.00390625,-11.311166763305664,0.39,34.74,8.87,-10.26,86.74,82.43,-10.26,86.74,82.51,11.831250190734863,0.37,34.74,8.8
57,1.728569746017456,762.656484455909,20.64375114440918,0.001953125,0.00390625,-11.299004554748535,0.39,34.74,8.87,-10.26,86.74,82.43,-10.26,86.75,82.55,11.92578125,0.36,34.74,8.76
58,1.7561581134796143,172.36157897986303,20.64375114440918,0.001953125,0.00390625,-11.28684139251709,0.37,34.74,8.81,-10.26,86.74,82.5,-10.35,86.75,82.59,11.92578125,0.45,34.65,8.72
59,1.788114070892334,172.36157897986303,20.64375114440918,0.001953125,0.00390625,-11.28684139251709,0.36,34.74,8.75,-10.26,86.74,82.56,-10.35,86.75,82.6,11.92578125,0.45,34.65,8.71
60,1.818920612335205,766.206592078417,20.64375114440918,0.001953125,0.00390625,-11.517930030822754,0.36,34.74,8.75,-10.26,86.75,82.56,-10.35,86.75,82.64,12.020312309265137,0.44,34.65,8.67
61,1.8490068912506104,766.206592078417,20.64375114440918,0.001953125,0.00390625,-11.517930030822754,0.34,34.74,8.69,-10.26,86.75,82.62,-10.35,86.75,82.68,12.020312309265137,0.43,34.65,8.64
62,1.8809804916381836,141.0911995104523,20.64375114440918,0.001953125,0.00390625,-11.59090518951416,0.34,34.74,8.69,-10.26,86.75,82.62,-10.35,86.75,82.71,12.116406440734863,0.42,34.65,8.6
63,1.9120352268218994,141.0911995104523,20.64375114440918,0.001953125,0.00390625,-11.59090518951416,0.43,34.65,8.62,-10.35,86.75,82.69,-10.35,86.76,82.75,12.2109375,0.41,34.65,8.56
64,1.9427361488342285,113.74551319810128,20.64375114440918,0.001953125,0.00390625,-11.59090518951416,0.42,34.65,8.56,-10.35,86.75,82.75,-10.35,86.76,82.79,12.2109375,0.41,34.65,8.53
65,1.9758689403533936,113.74551319810128,20.64375114440918,0.001953125,0.00390625,-11.59090518951416,0.41,34.65,8.57,-10.35,86.76,82.75,-10.35,86.76,82.82,12.3046875,0.4,34.65,8.49
66,2.0054473876953125,137.90553313111855,20.64375114440918,0.001953125,0.00390625,-11.38414192199707,0.4,34.65,8.51,-10.35,86.76,82.8,-10.35,86.76,82.86,12.3984375,0.39,34.65,8.46
67,2.038440704345703,137.90553313111855,20.64375114440918,0.001953125,0.00390625,-11.38414192199707,0.39,34.65,8.46,-10.35,86.76,82.86,-10.35,86.76,82.9,12.3984375,0.38,34.65,8.42
68,2.0682220458984375,132.85764213854395,20.64375114440918,0.001953125,0.00390625,-11.3963041305542,0.39,34.65,8.46,-10.35,86.76,82.86,-10.35,86.76,82.93,12.3984375,0.38,34.65,8.39
69,2.099191427230835,132.85764213854395,20.64375114440918,0.001953125,0.00390625,-11.3963041305542,0.38,34.65,8.41,-10.35,86.76,82.91,-10.35,86.76,82.97,12.3984375,0.37,34.65,8.35
70,2.129826784133911,141.4748588177814,20.64375114440918,0.001953125,0.00390625,-11.128728866577148,0.38,34.65,8.41,-10.35,86.76,82.91,-10.44,86.76,83.0,12.492968559265137,0.46,34.56,8.32
71,2.161712646484375,141.4748588177814,20.64375114440918,0.001953125,0.00390625,-11.104403495788574,0.36,34.65,8.34,-10.35,86.77,82.97,-10.44,86.76,83.04,12.572656631469727,0.45,34.56,8.29
72,2.192573308944702,141.6685863669468,20.64375114440918,0.001953125,0.00390625,-11.104403495788574,0.35,34.65,8.28,-10.35,86.77,83.04,-10.44,86.76,83.07,12.572656631469727,0.45,34.56,8.25
73,2.2250099182128906,141.6685863669468,20.64375114440918,0.001953125,0.00390625,-10.87331485748291,0.35,34.65,8.28,-10.35,86.77,83.04,-10.44,86.76,83.1,12.666406631469727,0.44,34.56,8.22
74,2.2557528018951416,145.0745684396072,20.64375114440918,0.001953125,0.00390625,-11.007102966308594,0.44,34.56,8.23,-10.44,86.77,83.09,-10.44,86.76,83.14,12.666406631469727,0.43,34.56,8.18
75,2.286214590072632,145.0745684396072,20.64375114440918,0.001953125,0.00390625,-11.007102966308594,0.43,34.56,8.18,-10.44,86.77,83.15,-10.44,86.77,83.17,12.666406631469727,0.43,34.56,8.15
76,2.3169422149658203,148.76070477006016,20.64375114440918,0.001953125,0.00390625,-10.885478019714355,0.42,34.56,8.18,-10.44,86.77,83.15,-10.44,86.77,83.21,12.760937690734863,0.42,34.56,8.12
77,2.3481738567352295,148.76070477006016,20.64375114440918,0.001953125,0.00390625,-10.885478019714355,0.41,34.56,8.12,-10.44,86.77,83.2,-10.44,86.77,83.24,12.760937690734863,0.41,34.56,8.09
78,2.381476879119873,138.95119296549797,20.64375114440918,0.001953125,0.00390625,-11.104403495788574,0.41,34.56,8.12,-10.44,86.77,83.2,-10.44,86.77,83.27,12.85546875,0.41,34.56,8.05
79,2.4111554622650146,138.95119296549797,20.64375114440918,0.001953125,0.00390625,-10.958453178405762,0.4,34.56,8.06,-10.44,86.77,83.26,-10.44,86.77,83.3,12.949999809265137,0.4,34.56,8.02
80,2.4434309005737305,118.70964174498154,20.64375114440918,0.001953125,0.00390625,-10.958453178405762,0.39,34.56,8.01,-10.44,86.77,83.32,-10.53,86.77,83.34,12.949999809265137,0.49,34.47,7.99
81,2.4753143787384033,118.70964174498154,20.64375114440918,0.001953125,0.00390625,-11.007102966308594,0.39,34.56,8.01,-10.44,86.77,83.32,-10.53,86.77,83.38,13.045312881469727,0.48,34.47,7.95
82,2.505903959274292,183.7382409043862,20.64375114440918,0.001953125,0.00390625,-10.934127807617188,0.38,34.56,7.95,-10.44,86.77,83.37,-10.53,86.77,83.41,13.045312881469727,0.48,34.47,7.92
83,2.5366947650909424,183.7382409043862,20.64375114440918,0.001953125,0.00390625,-10.934127807617188,0.37,34.56,7.9,-10.44,86.77,83.43,-10.53,86.77,83.45,13.13828182220459,0.47,34.47,7.89
84,2.5664076805114746,347.9991574703752,20.64375114440918,0.001953125,0.00390625,-10.98277759552002,0.47,34.47,7.9,-10.53,86.77,83.43,-10.53,86.77,83.46,13.13828182220459,0.47,34.47,7.87
85,2.5969345569610596,347.9991574703752,20.64375114440918,0.001953125,0.00390625,-10.98277759552002,0.46,34.47,7.85,-10.53,86.78,83.49,-10.53,86.77,83.49,13.13828182220459,0.46,34.47,7.84
86,2.628282308578491,152.09134113307303,20.64375114440918,0.001953125,0.00390625,-11.031428337097168,0.46,34.47,7.85,-10.53,86.78,83.49,-10.53,86.78,83.52,13.232812881469727,0.45,34.47,7.81
87,2.6603336334228516,152.09134113307303,20.64375114440918,0.001953125,0.00390625,-11.007102966308594,0.45,34.47,7.79,-10.53,86.78,83.54,-10.53,86.78,83.55,13.327343940734863,0.45,34.47,7.78
88,2.691960573196411,151.79143997489973,20.64375114440918,0.001953125,0.00390625,-11.007102966308594,0.44,34.47,7.74,-10.53,86.78,83.59,-10.62,86.78,83.58,13.327343940734863,0.54,34.38,7.76
89,2.722879648208618,151.79143997489973,20.64375114440918,0.001953125,0.00390625,-10.885478019714355,0.44,34.47,7.74,-10.53,86.78,83.59,-10.62,86.78,83.61,13.421093940734863,0.53,34.38,7.73
90,2.7534615993499756,217.91002424039127,20.64375114440918,0.001953125,0.00390625,-10.958453178405762,0.43,34.47,7.69,-10.53,86.78,83.64,-10.62,86.78,83.64,13.421093940734863,0.52,34.38,7.7
91,2.7848923206329346,217.91002424039127,20.64375114440918,0.001953125,0.00390625,-10.958453178405762,0.42,34.47,7.65,-10.53,86.78,83.68,-10.62,86.79,83.67,13.514843940734863,0.51,34.38,7.67
92,2.816218376159668,166.82885730867693,20.64375114440918,0.001953125,0.00390625,-10.885478019714355,0.52,34.38,7.66,-10.62,86.78,83.68,-10.62,86.79,83.69,13.514843940734863,0.51,34.38,7.65
93,2.848189353942871,166.82885730867693,20.64375114440918,0.001953125,0.00390625,-10.885478019714355,0.5,34.38,7.61,-10.62,86.79,83.73,-10.62,86.79,83.72,13.514843940734863,0.5,34.38,7.62
94,2.87918758392334,167.02901248112826,20.64375114440918,0.001953125,0.00390625,-11.019265174865723,0.5,34.38,7.61,-10.62,86.79,83.73,-10.71,86.8,83.75,13.610156059265137,0.59,34.29,7.6
95,2.9111335277557373,167.02901248112826,20.64375114440918,0.001953125,0.00390625,-10.98277759552002,0.49,34.38,7.56,-10.62,86.79,83.78,-10.71,86.8,83.78,13.705469131469727,0.58,34.29,7.57
96,2.9418716430664062,173.0451358816753,20.64375114440918,0.001953125,0.00390625,-10.98277759552002,0.48,34.38,7.52,-10.62,86.79,83.82,-10.71,86.81,83.8,13.705469131469727,0.57,34.29,7.55
97,2.972477674484253,173.0451358816753,20.64375114440918,0.001953125,0.00390625,-10.98277759552002,0.48,34.38,7.52,-10.62,86.79,83.82,-10.71,86.81,83.83,13.799219131469727,0.56,34.29,7.52
98,3.0042471885681152,175.79898421057842,20.64375114440918,0.001953125,0.00390625,-10.98277759552002,0.56,34.29,7.48,-10.71,86.8,83.87,-10.71,86.82,83.86,13.799219131469727,0.55,34.29,7.5
99,3.0348825454711914,175.79898421057842,20.64375114440918,0.001953125,0.00390625,-10.946290016174316,0.55,34.29,7.44,-10.71,86.8,83.91,-10.8,86.83,83.88,13.892969131469727,0.63,34.2,7.48
100,3.066396713256836,124.36163690335381,20.64375114440918,0.001953125,0.00390625,-10.98277759552002,0.54,34.29,7.44,-10.71,86.81,83.91,-10.8,86.83,83.91,13.892969131469727,0.62,34.2,7.45
101,3.098050594329834,124.36163690335381,20.64375114440918,0.001953125,0.00390625,-10.98277759552002,0.53,34.29,7.4,-10.71,86.82,83.95,-10.8,86.84,83.93,13.892969131469727,0.61,34.2,7.43
102,3.1296117305755615,65.65662241924363,20.64375114440918,0.001953125,0.00390625,-11.067915916442871,0.53,34.29,7.4,-10.71,86.82,83.95,-10.8,86.85,83.96,13.987500190734863,0.6,34.2,7.4
103,3.1611428260803223,65.65662241924363,20.64375114440918,0.001953125,0.00390625,-11.140891075134277,0.61,34.2,7.36,-10.8,86.83,84.0,-10.8,86.86,83.98,14.135156631469727,0.58,34.2,7.38
104,3.1906650066375732,1852.8785630733573,20.64375114440918,0.001953125,0.00390625,-11.140891075134277,0.6,34.2,7.32,-10.8,86.83,84.04,-10.89,86.87,84.01,14.135156631469727,0.67,34.11,7.36
105,3.222598075866699,1852.8785630733573,20.64375114440918,0.001953125,0.00390625,-11.128728866577148,0.59,34.2,7.32,-10.8,86.84,84.04,-10.89,86.88,84.03,14.326562881469727,0.65,34.11,7.34
106,3.2544026374816895,138.0796197809198,20.64375114440918,0.001953125,0.00390625,-11.080078125,0.57,34.2,7.28,-10.8,86.85,84.08,-10.89,86.89,84.06,14.326562881469727,0.64,34.11,7.32
107,3.28560733795166,138.0796197809198,20.646875381469727,0.001953125,0.00390625,-11.080078125,0.56,34.2,7.24,-10.8,86.85,84.12,-10.89,86.9,84.08,14.514062881469727,0.62,34.11,7.3
